-3.571547615713797796e+01 4.704364304760283666e+00 -1.362434277732029955e+02 4.453416900834585590e+01 8.293478224717220826e+01 -4.627834779193210624e-01 1.691038209547495796e+01 2.676674854659835390e+01 1.070306748564505028e+01 1.403635861845306287e+01 -5.176665202860528225e+00 -2.188593207312147726e+01 -8.909516959681122117e+00 -1.304054233104212024e+01 -2.882329728996816698e+01 2.942870552812618890e+00 3.154440422120140752e+01 4.018106106142980849e+01 7.211787970170082929e+01 1.003713414639127279e+02 1.354880644788071322e+02 2.115866236678709811e+02 2.787196876106553418e+02 3.063491454419361730e+02 3.336978299411496778e+02 3.569322764229624454e+02 3.516387906910138668e+02 3.219309059742005843e+02 2.662608587606993069e+02 1.493741860890936266e+02 1.904042362352029727e+01 -6.575598278421777820e+01 -1.381973009480178689e+02 -1.866039246270463252e+02 -1.905653568598333152e+02 -1.828184728186616610e+02 -1.938956342968395745e+02 -1.859198503105132545e+02 -1.531115937462083991e+02 -1.318111370306103254e+02 -1.212441521777281395e+02 -9.371618645630002220e+01 -7.618325889389861061e+01 -7.038411403030613656e+01 -6.692077176196715982e+01 -8.292638505150895867e+01 -7.669911013469135241e+01 -3.766295118139777998e+01 -2.534012703345961626e+01 -3.789687374049615443e+01 -1.960059435749105461e+01 9.801343074157097490e+00 7.192944028414472335e+00 -8.835133150474135277e+00 -3.792212742628270128e+00 -1.090795841886724205e+01 -2.756822989789962008e+01 -1.433077512847072654e+01 -3.674026071125301662e+00 -9.543222376640184024e+00 -1.147639505462416309e+01 -1.039237565205968217e+01 -1.113319618747786421e+01 -1.618105898869862713e+01 -1.777484884433490464e+01 -8.658748084853097993e+00 -5.193007488535237748e+00 -8.933756168412024579e+00 -2.028885924394434070e+01 -3.459802129183278652e+01 -2.402291835487280736e+01 -5.979192198668683567e+00 -1.218460133227714870e+01 -2.973534410554420759e+01 -2.637162377071602393e+01 -1.129909638033904962e+01 -1.373493152969160391e+01 -1.514624375805697198e+01 -7.789007115531512149e+00 -1.883325871384186101e+01 -3.018493026259528023e+01 -1.944657595500672898e+01 5.698575065023581132e+00 1.737809373249860068e+00 -2.078123776589325189e+01 -1.949375732448744003e+01 -1.271238821569428978e+01 -3.128248789687673082e+01 -5.718491460288840500e+01 -7.216166175846294095e+01 -7.486338495010527083e+01 -8.147770238129498921e+01 -8.922089304869940918e+01 -9.138719106187987506e+01 -9.666793928484594289e+01 -1.135678657736210511e+02 -1.312751779756812880e+02 -1.420335839715456245e+02 -1.185922191764828284e+02 2.766024748799402744e+01 4.884394495177235740e+02 1.274560781428075870e+03 1.669480674098896998e+03 7.429864159950561771e+02 -6.976188955545319459e+02 -8.950285393262929574e+02 -3.479413502277283783e+02 -3.197543021320198022e+02 -3.471120013320575595e+02 -7.839937879638785034e+01 1.385254005148961909e+00 -1.607915149006530839e+02 -2.533044903889839645e+02 -1.299198224249424527e+02 3.480840300586451974e+01 -7.011259892770633328e+00 -1.267781734615724076e+02 -1.234010464038255179e+02 -8.307672456795609151e+01 -1.373131918955196795e+01 6.946821279268071692e+01 -7.048844448003221075e+00 -1.215391597101453698e+02 -2.945584233510980710e+01 1.411378551051205648e+02 1.675754507957531132e+02 1.438801186572026154e+02 1.776217293196104094e+02 2.178229095998487708e+02 3.141406834388312177e+02 4.393742319513893335e+02 4.085343012299748011e+02 2.689969167571279627e+02 2.448428348111122546e+02 2.680191626889927079e+02 1.735305711721473472e+02 2.284918354827545528e+01 -1.087423617127671065e+02 -2.221126691186817936e+02 -2.175870537873786930e+02 -1.317473780343529484e+02 -1.525816062769428072e+02 -2.339355964425092793e+02 -2.057867223820154550e+02 -1.346606783459608607e+02 -9.112799964871450698e+01 -6.949886139849289179e+01 -1.033649357416824159e+02 -1.424640663940387526e+02 -7.847451640683205198e+01 1.597058404250412522e+01 -1.950120348141819893e+00 -5.738922625215032980e+01 -4.263013146990909519e+01 -1.397421538340862135e+01 4.056706390652670358e+00 3.542181748889222348e+01 5.429550399932510096e+00 -5.572335093783959792e+01 -2.994985615963195258e+01 3.542974994141778211e+01 3.507861852309009976e+01 -1.167103277590896049e+01 -4.246227590461183610e+01 -4.107527217952695509e+01 -8.533208199053877507e+00 2.368431835566834920e+01 -5.032393813953309980e+00 -4.731847837947206870e+01 -3.501821801217583641e+01 -1.292465062762905958e+00 1.176697639579641219e+01 3.788434659722502040e+00 -1.829905872846293491e+01 -3.339044143460282044e+01 -1.943193833310319718e+01 5.008084417529874877e+00 -1.048468221440786152e+01 -5.716357342064804925e+01 -5.001452667176312161e+01 -1.152012236081201557e+01 -6.093342066022782610e+00 -1.724526204885143343e+01 -3.832792812601643817e+01 -4.841309591393702050e+01 -2.291335472334422363e+01 1.667475386819601013e+01 3.065368920149012055e+01 1.306362082267810720e+01 -3.330522512916215039e+00 5.265983498169314991e+00 1.943352382144593093e+01 1.148272023607038683e+01 -3.603898479300473667e+01 -7.707561332191242798e+01 -6.000379700198865152e+01 -4.598532362908539284e+01 -7.522862323464761403e+01 -1.116552108385117776e+02 -1.229197415515169496e+02 -1.209412069133265817e+02 -1.202349516822306583e+02 -1.233531552007997902e+02 -1.372406408880955837e+02 -1.226971606943968567e+02 9.568884792622129964e+01 6.983332406725985493e+02 1.467798930566466652e+03 1.512690416075446819e+03 2.619828570581305485e+02 -9.282752430094705005e+02 -7.311658638358297821e+02 -2.675793864628076904e+02 -3.499960966953179309e+02 -2.787036250212056530e+02 -7.920313520673670560e+00 9.202004686063251171e+00 -1.611130183762435308e+02 -2.033160366895976665e+02 -4.836089645382622138e+01 5.998309170366535881e+01 -1.439119127688713462e+01 -8.582395448409796757e+01 -7.319107788837953876e+01 -7.216888436000660079e+01 -1.618179143339794024e+01 6.864409084535846262e+01 -2.047358737762096226e+01 -1.206309696872650079e+02 -4.658129698451555223e-01 1.415508426517437215e+02 1.500551579442210652e+02 1.527227459023866345e+02 1.835457948712587211e+02 2.247669588872473696e+02 3.357211935812611614e+02 4.210110347582359509e+02 3.401218479297920680e+02 2.443607848790411197e+02 2.720581889395303961e+02 2.558249303057457382e+02 1.230982230082034903e+02 -1.670391291915861842e+01 -1.443828173824401802e+02 -2.282096542168994233e+02 -1.897433757686650893e+02 -1.279338626476853591e+02 -1.778480111858561656e+02 -2.418527451665666490e+02 -2.020669789115360686e+02 -1.346610457508836589e+02 -9.569280871012621503e+01 -8.549344482846247217e+01 -1.320272339638262906e+02 -1.475270579431528120e+02 -5.422840929816616296e+01 1.785417390489150335e+01 -1.724147751558080444e+01 -6.441983177004355809e+01 -4.939513235580461270e+01 -2.491979296912698061e+01 2.630916535819344482e+00 3.805732171181673351e+01 1.387760694185366361e+01 -2.572026332529252457e+01 1.089914287219195543e+01 4.346483710107150245e+01 1.103686207372249406e+01 -1.128421369219197068e+01 -1.590708632060353800e+01 -1.381540602154855790e+01 1.465477754846494207e+01 2.131918956419215760e+01 -2.969408239641532532e+01 -6.287069112836130813e+01 -2.210462963356241772e+01 1.856666067828364319e+01 1.346034529140293046e+01 -9.746523436933744122e+00 -4.080974968093195798e+01 -5.196480105971247809e+01 -8.314014667281936610e+00 2.447681521975989227e+01 -8.010640132571900551e+00 -3.410922840455358340e+01 -1.226448753682316450e+01 2.028604852210112242e+01 2.517831183165640496e+01 1.815005047064004173e-01 -3.785988285649924734e+01 -3.483969279942832031e+01 9.636898288132485391e+00 3.220262703447042441e+01 2.991193052275052366e+01 1.224273615382702829e+01 -3.330734048781145162e+01 -4.559738606429272778e+01 -7.312044686939010774e+00 5.172481327345034074e+00 -3.726163189695476063e+01 -8.299675738587527007e+01 -7.116461927759212358e+01 -4.704277117675593445e+01 -7.754369206458954977e+01 -1.064177366441524839e+02 -1.008423653885094922e+02 -1.003811390485367241e+02 -1.268356277677102071e+02 -1.441978940618339209e+02 -1.439773050392970219e+02 -1.190707267770558389e+02 8.479656041842885372e+01 6.788733498643041457e+02 1.442201351487640522e+03 1.468087312563647174e+03 2.088059576978378402e+02 -9.419067807460224913e+02 -7.043118750522693290e+02 -2.657223329207412235e+02 -3.756603262787022572e+02 -2.770939624257456444e+02 1.064333847989490422e+01 2.053776394132096073e+01 -1.589635586670970895e+02 -2.124166175009388837e+02 -7.336126897909581146e+01 3.123597110935331855e+01 -3.185783235595884832e+01 -1.017381907200704774e+02 -1.011090074282407727e+02 -8.397971206761896212e+01 -7.186998730600345775e-01 7.314729499959801728e+01 -2.247898731488350776e+01 -1.056773635682733214e+02 3.210459092089541144e+01 1.620721422746057669e+02 1.489616900746938200e+02 1.552006940453992172e+02 1.897871348500474085e+02 2.312265903187330025e+02 3.571168177845493688e+02 4.413810616247843654e+02 3.402898191464061028e+02 2.379157468081271247e+02 2.681272689450212852e+02 2.478127250114263518e+02 1.207825134200786152e+02 -4.093326268006264534e+00 -1.315202273118501637e+02 -2.205588698968765584e+02 -1.623697112172623349e+02 -1.031936289439331773e+02 -1.741960603901010529e+02 -2.318353042898287981e+02 -1.801857120602412863e+02 -1.240035267232894682e+02 -1.023866072578264834e+02 -8.625341225506814169e+01 -1.123885659819385552e+02 -1.323588692758355876e+02 -6.320416482615334530e+01 1.914980231404554090e+00 -1.969521454281199979e+01 -4.305311763433886085e+01 -2.347122056880659358e+01 8.837235767091307537e+00 4.806725780136322612e+01 4.825079280064323939e+01 -2.173987671617465978e+01 -7.240124524615350765e+01 -2.106673675488490360e+01 2.829319598242313205e+01 -1.967033373770384230e+01 -6.272902525392908046e+01 -5.234116125457729396e+01 -4.042627371404086034e+01 -1.791025084356704156e+01 1.670676684973545489e+00 -2.692436085986170013e+01 -6.523753660166413226e+01 -4.279013808566737254e+01 4.680094588177327708e+00 5.118240677992126564e+00 -2.243209108968294174e+01 -4.449639543189930180e+01 -4.184653800373433796e+01 -6.315469112962141196e+00 1.331908500603166168e+01 -2.135366972183858181e+01 -5.327397378763751590e+01 -4.732303087445066581e+01 -2.023816074918304864e+01 8.222288081851042207e+00 1.924309326491255945e+01 -1.142034688932896669e-01 -1.672523337070656524e+01 -6.987473196520003427e+00 3.482660235481191080e+00 -3.167739686191993087e+01 -7.328272744594072208e+01 -7.905363126491410242e+01 -6.155313433611398466e+01 -5.536287308577357180e+01 -7.588752098679459834e+01 -1.048152212053184513e+02 -1.176371350856366433e+02 -1.099651032284627235e+02 -1.084711032546799743e+02 -1.323169240199326566e+02 -1.024194277038729268e+02 1.066534124360111662e+02 6.651075258978570446e+02 1.453445336150841513e+03 1.506854538653654572e+03 1.935929902293416376e+02 -9.684307517139409356e+02 -6.928676872110156637e+02 -2.602833298987142712e+02 -3.682975140155810436e+02 -2.736622313133437387e+02 -1.783144998430071482e+01 -1.670177131700516426e+01 -1.701570541884108252e+02 -1.966860796692125462e+02 -3.579765854175995088e+01 5.542352673823300790e+01 -4.136170720169975823e+01 -1.067259033219451680e+02 -8.181230410054246249e+01 -6.276475214534318781e+01 1.279197247512704827e+01 7.851954656580907965e+01 -1.639217162021996899e+01 -8.090687323162069333e+01 6.119893771563701534e+01 1.829961695955720984e+02 1.755068096618471998e+02 1.819319596301944273e+02 1.974246722834846537e+02 2.269330528306942369e+02 3.529386672458919065e+02 4.406624336782520004e+02 3.445110738280899909e+02 2.493814222720708642e+02 2.687512755676479514e+02 2.332247771624268751e+02 8.081588533233318117e+01 -5.051700160943296680e+01 -1.547532835394085566e+02 -2.258775880442838115e+02 -1.928280356443318624e+02 -1.462103222583997990e+02 -2.010753136353813204e+02 -2.415904821393295379e+02 -1.973569101009828159e+02 -1.498168314046783109e+02 -1.210053811412455786e+02 -1.038338177149830415e+02 -1.350525903186563710e+02 -1.502701232125154718e+02 -6.876920979045866034e+01 -6.376102309896012343e+00 -5.121789457241310117e+01 -7.795757374680030694e+01 -4.399591401419004200e+01 -1.375725205147411856e+01 1.393839210298002484e+01 3.430894550189979242e+01 -5.905349244431759459e+00 -4.205695889959385880e+01 9.857044002503698721e+00 6.383494796467115151e+01 4.123373129604065923e+01 7.091934026969315852e+00 -1.539527843827338538e+00 6.128973696300612062e+00 3.095491037277392721e+01 3.336772941343168952e+01 -1.432008478740666568e+01 -4.838370746006965817e+01 -2.713574269799267569e+01 3.086409390428151767e+00 -8.497464703312786583e+00 -3.070086661412312878e+01 -5.502075803836489598e+01 -6.165988026698887126e+01 -2.849089602231935103e+01 -2.698342746389878144e+00 -2.513378896516971750e+01 -3.648084136563508650e+01 -6.700163148875899033e+00 1.902357040235527208e+01 6.827365074532969480e+00 -2.663027266436266061e+01 -5.420842725374251359e+01 -7.069835925761481121e+01 -5.135944582742633457e+01 -3.536296975504400564e+01 -6.803986324377525818e+01 -9.754680551658542242e+01 -9.513447203320758661e+01 -9.187852702917470538e+01 -9.026800386964302447e+01 -1.173737585311133245e+02 -1.750765480951286008e+02 -1.731825993624493378e+02 -3.246496505384123310e+01 3.826497785000901786e+02 1.149972201835752230e+03 1.664355029922905715e+03 8.776143014531917288e+02 -5.904556186197191892e+02 -8.909296426531109319e+02 -3.566512955776811395e+02 -3.184736156122679631e+02 -3.938277387548877755e+02 -1.407360770135393864e+02 4.914891912722147538e+00 -1.244152885918046678e+02 -2.609162140713652889e+02 -1.656297405780513543e+02 9.153964044843906578e+00 -2.860730341579440950e+00 -1.099008419134609937e+02 -1.313492576580002549e+02 -1.074912972384299650e+02 -3.292383811075654165e+01 7.969184079100639906e+01 3.543903581353239218e+01 -1.080776408687997190e+02 -4.718972653034568054e+01 1.326957634558943937e+02 1.768760909944506352e+02 1.596894436244270992e+02 1.812771504042443382e+02 2.008427439452262036e+02 2.986899947323169613e+02 4.523348113134604773e+02 4.381297308701094266e+02 2.901063576209963912e+02 2.454315664189864208e+02 2.540341346505875890e+02 1.576261192888284484e+02 1.782247304559743029e+01 -1.130956134986802226e+02 -2.279989809488434389e+02 -2.256503762262163661e+02 -1.428926223953981491e+02 -1.564735507900199423e+02 -2.263114700141133540e+02 -2.066344347458990853e+02 -1.385962971174321012e+02 -9.118845805292970397e+01 -6.248830545328780062e+01 -9.057295106180481525e+01 -1.457709244785905867e+02 -9.311264417879873179e+01 9.352472028634808865e+00 3.893365621538805943e+00 -5.486853847828928821e+01 -5.971524090750402536e+01 -2.951408567044846620e+01 1.415623855459624103e+01 4.598101128853330266e+01 8.952059807055274376e+00 -5.178862176317039712e+01 -3.009085489217842380e+01 4.764799138793870270e+01 6.467269046920254993e+01 9.861758388571701062e+00 -4.299788361710961482e+01 -5.212821287029973405e+01 -1.111022776363671483e+01 2.777193091117245771e+01 1.520242908888947753e+01 -2.951427479031855938e+01 -2.307769353742114760e+01 2.512088957455649663e+01 3.295404222986032039e+01 1.763547965995504230e+00 -2.925544323369267374e+01 -4.844427435976950846e+01 -3.528773094018088585e+01 -4.589295794592080036e+00 -9.983698310842722634e+00 -3.670878843699101424e+01 -2.544194511920841251e+01 5.488193596229216098e+00 1.951564576935435014e+01 -9.081304858139653824e-01 -4.834261487635313870e+01 -1.074694056032590339e+02 -1.076492306145075162e+02 -7.582214596364103443e+01 -9.065760227236410174e+01 -1.248041169957529775e+02 -1.318051014515913550e+02 -1.234403745196985938e+02 -1.140899837108870400e+02 -1.127599967103535050e+02 -1.456618971393197057e+02 -1.810025226621372099e+02 -1.043238870099852136e+02 2.492733476837086926e+02 9.773190412546114203e+02 1.657198998905805411e+03 1.261954689532798284e+03 -2.168003873735173670e+02 -9.900810021982853186e+02 -5.186403671405760178e+02 -2.690680084336161713e+02 -4.128467280113857214e+02 -2.204926192136819338e+02 1.977319415533492020e+01 -6.084272490622577578e+01 -2.394069800931822840e+02 -2.049600519318393879e+02 -1.547494568649721636e+01 3.502291061385999882e+01 -6.732074483576479906e+01 -1.154646059695946434e+02 -1.007446959472447645e+02 -5.693181529775915806e+01 4.731241539243337968e+01 7.088397092083729945e+01 -6.839516812832906112e+01 -8.857762692161715279e+01 9.328325741379904912e+01 2.006360374786560214e+02 1.837936840255648292e+02 1.822334071884597790e+02 2.054659727800675739e+02 2.754808619067291602e+02 4.153102764006352459e+02 4.593977083620613939e+02 3.284058521908511921e+02 2.226062095170819077e+02 2.307546081894702183e+02 1.824711262475457829e+02 5.224416667380063473e+01 -7.596498330582410574e+01 -2.084439453156627451e+02 -2.547843164427046645e+02 -1.759485716427734872e+02 -1.451531840637613300e+02 -2.163153055011398180e+02 -2.352048640050422534e+02 -1.731460242700782715e+02 -1.309730856303800977e+02 -9.884175569382085769e+01 -8.967291790657340300e+01 -1.412706300914447297e+02 -1.381424811975940941e+02 -3.572817283196849303e+01 6.625578259122982594e+00 -3.672703720228484769e+01 -5.408696413016872384e+01 -3.273864177548100685e+01 6.276269219249181575e+00 4.509654258966644846e+01 3.243268867458535709e+01 -3.993450648913968593e+01 -4.646742654683921359e+01 3.552423489857905992e+01 6.363928305914065930e+01 1.793100849036283151e+01 -1.772197563112659680e+01 -2.362413724570443918e+01 5.391462415367194616e+00 3.617044137557206085e+01 2.337664628939707256e+01 -2.046838599189038632e+01 -4.693179392817031470e+01 -1.656704473516553477e+01 3.093687274392569009e+01 2.140527870076549988e+01 -3.240468972233300349e+01 -5.966803179100629251e+01 -3.169468097184243405e+01 8.709421239678849957e+00 1.583347786639319743e+01 -2.448653575184278619e+00 -1.318014827739323103e+01 9.235997005970915552e+00 1.682510614632516521e+01 4.117323251089122671e+00 -1.392535956875124903e+01 -5.682743815236013063e+01 -7.726135106395736329e+01 -3.742835710332190047e+01 -3.964087521144574566e+01 -9.837052402271118012e+01 -1.235206938242067594e+02 -1.194716747236290217e+02 -1.075290618181632283e+02 -1.186033519374332172e+02 -1.475786825361270189e+02 -1.375028268116033701e+02 1.469521899449400237e+01 5.130920899705679403e+02 1.299652540253223606e+03 1.586115396373750627e+03 5.691704651788503497e+02 -8.242395336770655376e+02 -9.493786727187499537e+02 -3.838359965052645748e+02 -3.271240260461806884e+02 -3.379893446776363817e+02 -8.069524124262282783e+01 2.412585249973334456e+01 -1.086319408714325192e+02 -2.147574448968258025e+02 -1.035760879276260056e+02 4.185965184982738663e+01 -1.750918067729142935e+00 -8.829489449480338692e+01 -9.332023423714430521e+01 -8.246487663878666297e+01 -1.754882582965096560e+01 7.657451289748789236e+01 2.425640344975286311e+01 -8.802738477655569227e+01 -9.964105840687114579e+00 1.369054209995898930e+02 1.565074679205875157e+02 1.666890343369080369e+02 1.976685539728347578e+02 2.022370633475606496e+02 2.924898087179303161e+02 4.216799033921103046e+02 3.818333291044224325e+02 2.434944559718871346e+02 2.213691804353474595e+02 2.346666930909400435e+02 1.303809965542754981e+02 -1.250540851853169499e+01 -1.239052093998191566e+02 -2.104023780793380070e+02 -1.909664777686010950e+02 -1.210020353683955818e+02 -1.548369526798191487e+02 -2.206943200009169175e+02 -2.016740199956519461e+02 -1.448916225658844326e+02 -9.783028736292001781e+01 -6.739061721187196952e+01 -9.827818782538388120e+01 -1.457444901336895668e+02 -9.391118767979158122e+01 -9.364274379675691762e+00 -2.557361166660349738e+01 -5.984817297008668646e+01 -4.944882641361092368e+01 -2.810025547746876029e+01 8.162472659043752410e-01 3.069777031519717880e+01 9.691202118003763744e+00 -3.732526657906061729e+01 -1.590443785586412950e+01 5.395805745195445979e+01 5.549102995169826613e+01 1.156558210184505064e+01 -1.370665160540982797e+01 -1.075562342674525240e+01 3.189638862599365865e+01 5.915054915164407134e+01 8.823401764753059595e+00 -4.449908455668966667e+01 -2.348928506447153808e+01 1.573075087289468144e+01 1.043246506614154079e+01 -1.867903689754290752e+01 -4.300326417296403037e+01 -6.315890852442735337e+01 -4.175004657527544083e+01 1.407092741415359249e+01 1.469895021947784208e+01 -2.002395741384932037e+01 -1.983992177970358384e+01 -6.046635536981854742e+00 -5.942610648318262356e+00 -2.662882996984649608e+01 -6.678850092234387148e+01 -8.576488745366445698e+01 -6.144385104695994926e+01 -4.090125754370927780e+01 -6.674898368611653154e+01 -1.031533501245070852e+02 -1.065197526888136963e+02 -1.014378256192898391e+02 -9.935529578082815760e+01 -1.005425141205403179e+02 -1.065760127895281926e+02 -1.899354740179387946e+01 3.636758623894028233e+02 1.099043746272177714e+03 1.576532528786637840e+03 8.334955527296663149e+02 -5.808701589063342681e+02 -9.409438580006566326e+02 -4.199959416107740822e+02 -2.940971253525052589e+02 -3.380816802748691430e+02 -1.117887773142572740e+02 8.844823872697991973e+00 -1.214354561284734757e+02 -2.346813495855783174e+02 -1.532951666845180227e+02 -1.499975201011116255e+00 -1.978792041150424197e+01 -1.170232739006158340e+02 -1.072344938025143790e+02 -8.146580923303092447e+01 -5.440723130912132888e+01 4.344020997471359635e+01 3.694165335249149251e+01 -8.496531527091754299e+01 -4.962142193433778914e+01 1.136155574749317054e+02 1.682680235839629859e+02 1.513591852320889757e+02 1.799283673043506155e+02 2.061352517050704023e+02 2.732495014627800742e+02 3.966862856453147401e+02 3.814013325877278930e+02 2.600104243036503249e+02 2.319704378490185661e+02 2.351918466109646033e+02 1.425290614069578226e+02 3.112298947679221683e+01 -7.951032223591241177e+01 -2.030680524682688315e+02 -2.232232649429745663e+02 -1.378579893918908681e+02 -1.442272093439550531e+02 -2.358355458342527697e+02 -2.267064952132788562e+02 -1.457014525793859718e+02 -1.089994976117558423e+02 -9.668113605769273988e+01 -1.059277251834972020e+02 -1.341949946295837321e+02 -1.003237227857628682e+02 -2.284269489163034805e+01 -9.096519392843360308e+00 -5.511643909716905654e+01 -6.174862888415537299e+01 -2.920440119110166322e+01 2.185484534299259707e+00 3.929070076546352652e+01 2.242326391831770138e+01 -4.174866023507686208e+01 -3.638671343344163489e+01 2.929012871541037200e+01 4.438066055344751248e+01 6.329145305138523803e-01 -2.324644808971997989e+01 -1.719409179786102371e+01 4.229756367560808528e-01 3.216326466506158965e+01 2.173166420973160839e+01 -2.421382649678613674e+01 -3.225190668368200164e+01 9.436921956334732853e-01 1.997640659735211344e+01 2.417349005045823773e+01 1.593178067538594256e+01 4.976717274188795059e+00 2.421528248201657263e+01 4.667363627077465793e+01 1.290050027216453010e+01 -5.232119066736822077e+01 -6.530660612321584324e+01 -4.475749871753375686e+01 -4.440869790696204689e+01 -5.537162361340265448e+01 -7.232102367979985047e+01 -9.773377462157758089e+01 -1.011295937593600769e+02 -7.945810308530299437e+01 -7.811154482144959843e+01 -1.197192530562880250e+02 -1.568725941692482024e+02 -1.203478266694004191e+02 4.883072551834921882e+01 5.099279505696887327e+02 1.260131230325247543e+03 1.510690342206734385e+03 4.227822982953894098e+02 -8.298653945985813607e+02 -7.392578511248539144e+02 -2.891660159071910812e+02 -3.734275751196706210e+02 -3.129663917505255881e+02 -1.984857190317032050e+01 4.179643910604401924e+01 -1.483044422078365301e+02 -2.621972159911048834e+02 -1.118707828888784803e+02 2.711306417242846578e+01 -5.362752146186786462e+01 -1.317764497747435257e+02 -1.155967410636723258e+02 -1.033642870231030031e+02 -2.542672651934541150e+01 6.975116988717338984e+01 -1.724996603743888102e+01 -1.302880087093636234e+02 -3.917963241776445837e+00 1.627755188164400693e+02 1.651559295265522564e+02 1.567672061780823753e+02 1.877005912863738217e+02 2.068817337192309935e+02 3.150053029836180940e+02 4.285071159363228048e+02 3.398790905214643203e+02 1.946330686906239578e+02 1.962717617874517941e+02 2.106694793020619443e+02 9.766223310786070044e+01 -3.617834844178926801e+01 -1.518133657212567584e+02 -2.362899966639824640e+02 -1.847127771297025447e+02 -9.547920491330727089e+01 -1.474114477302647970e+02 -2.158196744991336686e+02 -1.751364859103118761e+02 -1.154880483207749364e+02 -8.688125229658002979e+01 -7.970277230955296943e+01 -1.203178762388647414e+02 -1.522907849786984968e+02 -7.644252105831249366e+01 1.543512056981489877e+01 -1.423881883723199415e+01 -7.282460525686089170e+01 -5.847745482701409969e+01 -1.539696252049352765e+01 2.148552707887611746e+01 3.396451238511358639e+01 -5.638040772450440663e+00 -4.529100434742102266e+01 -6.205286134799502307e+00 5.245275936509389680e+01 3.618521460931020783e+01 -1.374103651823786620e+01 -3.081435539851413097e+01 -1.842709838710807801e+01 2.601332212153051415e+01 5.935175152165565038e+01 1.440052785442004080e+01 -3.485608891560256239e+01 -8.049167104731495215e+00 4.326305991892059666e+01 4.946888495368489913e+01 2.435790073623865482e+01 -1.579842073698017879e+00 -2.720746157707412038e+01 -2.252824190404286497e+01 -7.139038667287988638e+00 -6.139742560028319929e+01 -1.296823266669764791e+02 -1.199370426819767914e+02 -9.083387829904782507e+01 -8.717348564794970400e+01 -1.119027749046860407e+02 -1.491637936240726958e+02 -1.663687043236766954e+02 -1.497497606209676917e+02 -1.135902787048218840e+02 -4.263614742565884086e+01 2.613541695908976976e+02 9.869042562725558128e+02 1.588743985528127268e+03 9.556966455795110278e+02 -4.925061450529781837e+02 -9.023561733581545923e+02 -4.069465993950913116e+02 -3.362981311164696194e+02 -3.791699539198070283e+02 -1.107021611678188719e+02 3.202655289343287137e+01 -9.520302939131195785e+01 -2.106336860163380322e+02 -1.069396681519515937e+02 7.324577453105143832e+01 3.926278330691431506e+01 -9.051149358162487601e+01 -9.669732770263044586e+01 -6.820278867586286253e+01 -3.231030121188742044e+01 6.058024661593017157e+01 3.128149770790752981e+01 -1.133011037459041432e+02 -6.668023029047250816e+01 1.268829171227007322e+02 1.693913548451148756e+02 1.400297945104396433e+02 1.705348664262521368e+02 2.012621970651346146e+02 2.792314855164955816e+02 4.037672598513836988e+02 3.808584907982765912e+02 2.506192994103390959e+02 2.235186385564341265e+02 2.214209828415649497e+02 1.092376027772944411e+02 -1.767238435978645228e+01 -1.165627640171377521e+02 -2.242061051456259122e+02 -2.193689905873646637e+02 -1.129092350946057621e+02 -1.321181662567606168e+02 -2.366884390847486657e+02 -2.116415846897493225e+02 -1.171683978771216061e+02 -8.615092430342430418e+01 -8.817130924846473761e+01 -9.459535963470156616e+01 -1.196879782220185717e+02 -8.686039851636998321e+01 5.665628957989436998e+00 1.496363840200941020e+01 -4.928541079017944782e+01 -4.861322698087658267e+01 -1.239178218337842807e+01 8.092543095100193540e+00 2.466739470024413450e+01 -1.781469820850104568e+01 -8.732732033794871995e+01 -5.278261781309330303e+01 3.048624519922029918e+01 1.825070466883138565e+01 -3.478787368642784372e+01 -3.567102711200354292e+01 -2.557014709941794095e+01 -1.838479606421087809e+01 1.684332512101473256e+01 7.303313045094181000e+00 -2.228137105323570211e+01 -2.395057115998077357e+00 2.280950081713435651e+01 1.335003694111907535e+01 -2.124256360451823866e+01 -6.653154277475732670e+01 -7.795339736853858881e+01 -5.246578711424244545e+01 -3.484910056440374859e+01 -5.675296005428022283e+01 -8.898886621253524254e+01 -9.712841420411467652e+01 -9.307898232231582369e+01 -8.758279006588233528e+01 -9.683244975321423453e+01 -1.190278602201009051e+02 -9.526125183692066400e+01 1.176182780383837496e+02 6.828014019454248000e+02 1.397849046236710365e+03 1.346731800729072802e+03 8.959540948446942821e+01 -8.982508471845750364e+02 -5.951553922757287864e+02 -2.505094932595802391e+02 -4.047547853545365797e+02 -3.097006326800969305e+02 -2.722949113110909991e+01 4.760542307737789081e+00 -1.435258285715037800e+02 -1.912221041488762978e+02 -4.792431532389369409e+01 5.643747923074919015e+01 -2.257968547757258904e+01 -8.461296866013285012e+01 -6.823911415622181664e+01 -6.568941867906001164e+01 1.583340367886798106e+01 1.007202534385691166e+02 1.926868813776075662e+00 -6.904449675906714390e+01 7.460102807409948866e+01 1.959863282435418625e+02 1.905858592965086302e+02 2.079674260909882548e+02 2.364477244997024172e+02 2.548017560534750601e+02 3.601339960338847277e+02 4.401533729734136386e+02 3.311375824482636858e+02 2.117142957630925366e+02 2.002556126938849275e+02 1.384513236209290028e+02 3.976768556453569303e+00 -1.020586095852945050e+02 -2.054306804451618973e+02 -2.717803653458173585e+02 -2.026396381795237858e+02 -1.380465826059088670e+02 -2.188541075535168829e+02 -2.730699119978863791e+02 -1.994997156995283945e+02 -1.360215641241224773e+02 -1.182013825118155097e+02 -1.033937181496627034e+02 -1.260533525669902275e+02 -1.380889845834140601e+02 -7.792799452145402483e+01 -1.997299463693448374e+01 -4.303497459473434361e+01 -6.912806785443439139e+01 -5.511933218175443727e+01 -2.568675010017031823e+01 2.077928887530759994e+01 3.348880484203296248e+01 -2.155699637177516337e+01 -5.222782403409570406e+01 9.349714241582777197e-01 4.746746899558001331e+01 2.624210679510521871e+01 -8.740399389537014230e+00 -2.183122878727029814e+01 -2.534915507081784369e+01 1.093615333290390801e+01 5.534832463019455417e+01 6.491538492063881893e-01 -6.423248738529593993e+01 -4.116139794194289436e+01 -1.656180691022770901e+01 -4.022097377774098703e+01 -6.045317151799802247e+01 -8.329355960692538474e+01 -1.045057578643121587e+02 -7.705467241294813618e+01 -4.970893691688865346e+01 -9.328797406932503122e+01 -1.392599580840543183e+02 -1.309564597850368273e+02 -1.173704183609777658e+02 -8.635058032420491259e+01 3.857020793792140267e+01 4.379012477589001833e+02 1.180548512178685542e+03 1.519712808092658634e+03 5.710906630213825110e+02 -7.055623978479397920e+02 -7.689737601047504540e+02 -3.132778699224238039e+02 -3.256884151941722507e+02 -3.001440954551657114e+02 -4.502377512480182276e+01 2.257273672249478125e+01 -1.175247754773574371e+02 -1.880394294340360659e+02 -5.328204441589647189e+01 7.984368713217294555e+01 4.143935612911786026e-01 -1.178304723688212192e+02 -1.223116935116768929e+02 -8.747084100776073967e+01 -9.049472303501472581e+00 5.276268921780975063e+01 -3.568620782263442948e+01 -1.113068817772535795e+02 1.260424193002879001e+01 1.605655665313732925e+02 1.641526762080315507e+02 1.610914272970004504e+02 2.050387643354336547e+02 2.403408141314395721e+02 3.270163943634154293e+02 4.178022498732218537e+02 3.548530184109372954e+02 2.352522284846351965e+02 2.113766979600884781e+02 1.840502494875486832e+02 7.314130733311819199e+01 -5.709579050476842355e+01 -1.714159914342034767e+02 -2.366968549188019040e+02 -1.940631351248876797e+02 -1.299645058195051490e+02 -1.836406199659895151e+02 -2.440143319480733339e+02 -1.946333577239665544e+02 -1.299906802553915384e+02 -1.096515765139813396e+02 -1.037352265344916589e+02 -1.309690943318388179e+02 -1.542670711479755994e+02 -8.833976305328303624e+01 -6.219527077588992370e+00 -3.756272185888192894e+01 -9.426188625098575358e+01 -6.986148182603956514e+01 -2.128276070449187429e+01 8.908990593405835767e+00 2.023516011514064061e+01 -2.126064143453649891e+01 -5.522929919520174025e+01 -1.152827461548020160e+01 4.037135098971511837e+01 2.705401806145692234e+01 -1.810502760543623069e+01 -3.732353446359766735e+01 -2.573557858043405844e+01 7.984911181309125361e+00 2.803922240450778602e+01 -1.106132081875210460e+01 -4.883245878353163505e+01 -1.900748232569988616e+01 3.398572384755649267e+01 4.515767448772124482e+01 1.486751864262479650e+01 -1.590374700302730915e+01 -1.926101446906137227e+01 -1.695822010124168244e+01 -2.940456117805004865e+01 -6.984217323456125825e+01 -1.012808406156168957e+02 -8.395190351514290228e+01 -6.652222338595849749e+01 -7.999537250379690079e+01 -1.225285874373023489e+02 -1.746218095102775578e+02 -1.888911733618016342e+02 -1.637713436307906534e+02 -1.508267423997590413e+02 -1.037407086312667559e+02 2.367369779544207802e+02 1.050955422251644450e+03 1.729317049265953983e+03 1.237055166991167880e+03 -1.822294332975102122e+02 -8.753607833718541542e+02 -4.858114769463157927e+02 -2.807010205110518086e+02 -3.717380280815457354e+02 -1.804897967084486936e+02 -6.580266344815465906e+00 -1.203333350676380746e+02 -2.611433683001382633e+02 -1.810865320990836551e+02 6.148217457935452046e+00 2.069588919686662010e+01 -1.006378267383862237e+02 -1.270116568007809548e+02 -8.207782707313099024e+01 -2.914842441882068158e+01 5.129771542379048554e+01 3.142753754296840896e+01 -9.938772217678670984e+01 -8.093035357162301580e+01 9.864684954773296965e+01 1.648270565640793848e+02 1.214268976546020440e+02 1.424731828969931371e+02 1.988496030343126222e+02 2.703175258973627706e+02 3.859396351430841037e+02 3.906057317854492226e+02 2.726555194300518110e+02 2.219914953112387650e+02 2.380956139932090423e+02 1.573187186283485062e+02 8.528336184912539863e+00 -1.099133884133732977e+02 -1.997487180906294100e+02 -2.098007800418649538e+02 -1.222922312377352085e+02 -1.152340142109471088e+02 -2.007491943093949658e+02 -1.975437570906798896e+02 -1.096064994842886335e+02 -5.880058218224122868e+01 -5.946961896093327482e+01 -8.283665035073852323e+01 -1.148051764467358566e+02 -9.489869568345227435e+01 -1.622996752167613010e+01 1.006886278634084775e+01 -5.665185449857959554e+01 -9.127143338287176277e+01 -5.767598416087066227e+01 -1.268210566618391155e+01 1.508580541495085292e+01 2.810103966756182792e-01 -4.318167113420192038e+01 -3.670157306360004412e+01 8.741868699342964177e+00 7.793267663157651626e+00 -3.649382905921196851e+01 -4.931226535015320422e+01 -3.322049077291222829e+01 -1.953296144421038250e+01 7.985998588548101296e+00 5.163864489913085443e+00 -3.744434346319750517e+01 -4.146780112097350468e+01 -4.878772553329618233e+00 1.653423561153814703e+01 2.187905601429400715e-01 -2.306773217918906482e+01 -3.184590599139722400e+01 -9.311250409660976501e+00 2.183886287724611464e+01 1.072584110198491381e+01 -3.603877393144962582e+01 -4.058980651801614670e+01 -3.808566275499395637e+00 2.988656510297095892e+01 3.431928725623419041e+01 6.097514462878926622e+00 -1.326233550292614716e+01 -6.122908876870732264e+00 1.465902376027421461e+01 2.649260799353657880e+00 -5.737114166105337176e+01 -1.060045811484966976e+02 -9.242157879275322330e+01 -7.471107020391897890e+01 -8.264340627755296964e+01 -1.088002896131209098e+02 -1.362312654041598705e+02 -1.417310907671064797e+02 -1.340225043176634188e+02 -1.504517618188401400e+02 -1.774192979824874783e+02 -1.228585790547347187e+02 2.100926990006273058e+02 9.792346555724316204e+02 1.714008415527170428e+03 1.403797491336825260e+03 -5.839481592943709387e+00 -9.041846926355391361e+02 -5.423762122125867791e+02 -2.427333219258858037e+02 -3.868568310823803245e+02 -2.400942165019285142e+02 -2.336069854516979127e+00 -5.759615306549964941e+01 -2.081991440242874205e+02 -1.865013783983654605e+02 -2.446646488571893130e+01 4.239562287051414557e+01 -5.525104873496401581e+01 -1.273789773212596543e+02 -1.079470490963807379e+02 -6.677498164044475004e+01 1.034935294642817993e+01 4.111500662947188545e+01 -5.688832496128385685e+01 -8.128648136851862205e+01 6.281538676825816481e+01 1.523927115417237985e+02 1.270214200484057585e+02 1.218210715170659597e+02 1.629617897567135003e+02 2.327634062089861970e+02 3.500412198598260147e+02 3.999488913863916082e+02 3.028454786182393832e+02 2.333120034448338060e+02 2.620054711539675054e+02 2.171959187056191070e+02 7.488208010224774114e+01 -6.044501141819284129e+01 -1.782059566354095637e+02 -2.259555412876460991e+02 -1.740844077086272534e+02 -1.452922006905388059e+02 -2.067821037271438342e+02 -2.391640014363382534e+02 -1.818685323254230184e+02 -1.156228309081187149e+02 -8.109219100976270056e+01 -7.848265269042252612e+01 -1.231772330929622115e+02 -1.302514158298823759e+02 -5.565429046211821884e+01 -1.181341608606466487e+01 -5.355150117784103259e+01 -7.438821994776971280e+01 -5.117504238509147996e+01 -2.278623957529254440e+01 8.493882759265369842e+00 1.856580742148313945e+01 -2.378168627898289955e+01 -4.303636204562872081e+01 1.094949081937728685e+01 4.553944005447914378e+01 1.170413881362552111e+01 -2.951881000763042451e+01 -3.901006265772916493e+01 -1.001015843453291509e+01 2.113508678858254797e+01 1.225980347691330152e+01 -2.713733064953759211e+01 -3.846965868019704260e+01 1.495294265766320851e+00 2.719436997754785423e+01 1.433604641229673504e+01 -4.674349977684602031e+00 -2.084146566345237517e+01 -1.380973827278313948e+01 2.825890335507336459e+01 4.290525224008597149e+01 6.354189690838250471e+00 -1.781255490010352460e+01 3.072533763967022491e+00 2.027111157493708049e+01 1.147569527222566599e+01 -2.279617206187186440e+00 -1.607574829906953440e+01 -1.286041266707399444e+01 1.815031635671036980e+01 3.267643586105251785e+01 1.218739362393532843e+01 -3.074797780919978352e-01 5.792287459642098568e+00 8.508431734478170583e+00 -1.954407449812953335e+00 -1.021165537522724520e+01 -2.313149336004127576e+01 -2.797694152329428263e+01 5.506682197054451056e-01 1.444645011847527805e+01 -5.876746648664187056e+00 -1.490224252167737440e+01 -9.946425833084358459e+00 8.010498007438481949e+00 1.958000668237592734e+01 7.943143083137003124e+00 -1.310880302517620422e+01 -2.860368884145863433e+01 -2.175502628732639465e+01 -8.875979533488886020e+00 -5.737930653710789031e+00 3.060316059708164893e+00 1.490548981983096866e+01 9.635012893955932967e+00 4.648703384682882245e+00 4.254899142830415926e+00 -1.573896452645292143e+01 -4.701729134589358239e+01 -5.866463985590756636e+01 -5.803586624535996208e+01 -6.411421745152220808e+01 -7.562021453400288351e+01 -9.211098250588179326e+01 -1.010715041295362511e+02 -9.551478725219837429e+01 -9.991500631470307781e+01 -1.229740077888300078e+02 -1.486590299422920509e+02 -1.738382795469372581e+02 -1.495877926484492377e+02 8.888645328692916792e+01 7.388497137133624619e+02 1.544709197130640860e+03 1.616503321484808794e+03 4.265226675308393283e+02 -8.142666670632982004e+02 -7.490567602183767804e+02 -3.116355843282010483e+02 -3.954673405377642439e+02 -3.397395338023290492e+02 -6.537214512374779929e+01 -5.646157661953854756e+01 -2.343538860618349702e+02 -2.672072253046439982e+02 -9.567056580142927658e+01 4.105715076242110939e+01 -4.369136173917949151e+01 -1.607599415059193291e+02 -1.485828859176159824e+02 -8.641006213042666673e+01 6.228424962674133925e-01 5.468194272380660692e+01 -5.033512395232391867e+01 -1.307380729417410805e+02 6.835048363241335023e-01 1.489836116346748156e+02 1.463379988043396054e+02 1.275645054421900255e+02 1.602089668661574251e+02 2.056738065579904458e+02 3.081163802170909776e+02 3.926915115580001157e+02 3.109318440815863482e+02 2.103393314583213396e+02 2.488863311594703873e+02 2.708558987413833847e+02 1.576117524654168278e+02 5.939162204516794219e+00 -1.229784215287900651e+02 -1.960055707470276332e+02 -1.624580469671210210e+02 -1.181950229909049597e+02 -1.835210146312582253e+02 -2.438052642563221752e+02 -1.950940056070058404e+02 -1.195937422322313637e+02 -7.764155679497287110e+01 -7.175366846378986452e+01 -1.150024420337487214e+02 -1.376246540606301778e+02 -6.196095618487682088e+01 1.474391572596173283e+01 -2.437078994088336970e+01 -8.335791092827250282e+01 -5.682701599111616275e+01 -5.728782756639443363e+00 2.988194874848652560e+01 4.236341377134198183e+01 -6.670658728759124578e+00 -4.569335037629947038e+01 3.000438876147691225e+00 6.040804712211238581e+01 3.361985253947818109e+01 -1.872667796989737354e+01 -2.710620935018781097e+01 -9.067275850836161055e+00 2.523966943585961431e+01 4.144096207397350184e+01 -6.135975410076937031e+00 -3.877019678012768367e+01 -1.731331262635487978e+00 3.443715201466979892e+01 2.691891955237435852e+01 1.102504685593974720e+01 -6.256079066580986670e+00 -2.763670203727381480e+00 3.352974715022934760e+01 5.819280505958185756e+01 2.642722055146714411e+01 -1.816356444394822844e+01 -1.094514001844752116e+01 1.623818577646581929e+01 2.109473005684937164e+01 -5.473560138998529112e+00 -3.607167182542769268e+01 -3.428100651514522923e+01 -6.828506644696794581e+00 6.208529831455415149e+00 -1.354372884696164547e+01 -4.150860558232800912e+01 -3.199624016197251208e+01 -5.220940045574602451e+00 8.168035498637774339e+00 1.008680123762194825e+01 -1.403051699534089991e+01 -4.191833474277040494e+01 -3.184951446863134450e+01 -4.675357025461168270e+00 -8.049442949135537262e+00 -3.616436297910151865e+01 -3.791836425671180422e+01 -1.859418867876186710e+01 -6.422984774116310414e-01 -9.514815598750865355e-01 -1.973518717710337356e+01 -2.701832316179939752e+01 -9.644039428317045193e+00 1.655686195397428229e+00 -9.119490932693317120e+00 -2.161907586363628653e+01 -3.306976044219454280e+01 -1.215177452943481029e+01 2.913660208947960939e+01 3.352874635392718261e+01 -1.733135478853527189e+01 -4.690873381176624690e+01 -9.273612433080423045e+00 9.544310167748715656e+00 -2.498101478346478643e+01 -6.261800650365638177e+01 -7.671299451466627772e+01 -7.462038591707347734e+01 -7.145136930693371369e+01 -7.887508397096044632e+01 -9.473882329731311813e+01 -1.202028069568050057e+02 -1.348292235753623345e+02 -1.350258650988862428e+02 -1.431115550342942129e+02 -1.574367185325081664e+02 -9.852285351998020246e+01 2.490916483123150442e+02 1.026020057085367853e+03 1.706678053301224054e+03 1.290583000839360238e+03 -1.436130931970822360e+02 -9.109514117972129270e+02 -4.921102977623100969e+02 -2.607556721466210661e+02 -3.833341079949631194e+02 -1.876761537709610081e+02 1.879183558402572274e+01 -7.563752876282281079e+01 -2.138464938485935534e+02 -1.675891865788285600e+02 -6.349557508015100105e+00 1.724981821248954006e+01 -8.792902911416341283e+01 -1.227263216444779630e+02 -1.104712843148148522e+02 -8.924845232811732387e+01 4.981413114383569152e+00 2.923836543294959966e+01 -9.601569173879650521e+01 -1.092839607074681965e+02 6.011727351825508947e+01 1.469214657150020571e+02 1.153908725798376480e+02 1.334174906404757053e+02 1.851079235150751572e+02 2.550723974006024264e+02 3.699981839469531906e+02 3.884741351480489584e+02 2.878496495852720614e+02 2.539173586655635120e+02 2.992752391851469156e+02 2.539383819050011368e+02 1.056933332178618912e+02 -3.583846021972958340e+01 -1.646041889733708956e+02 -2.226358898775291095e+02 -1.615714671194950824e+02 -1.482559203070658214e+02 -2.392686758412012580e+02 -2.570789755474390859e+02 -1.787723395508547526e+02 -1.262462254061812672e+02 -1.166771089761199107e+02 -1.251580834535202200e+02 -1.552907401977302015e+02 -1.435452855535481547e+02 -5.542500491554497444e+01 -1.154594953026297688e+01 -5.798338881467248029e+01 -8.470807032194180408e+01 -6.333643089798855641e+01 -2.239758180448358260e+01 1.926602177812377548e+01 1.414702756040721354e+01 -3.772278324864655019e+01 -4.450325743866623185e+01 1.501345246257445964e+01 3.951718504874418869e+01 5.103923996217513803e+00 -1.474000817961449350e+01 -7.784332304213376297e+00 4.557731374744915520e+00 2.933309900303907014e+01 2.954466728920510832e+01 -1.435402088502800133e+01 -2.901713025809301527e+01 1.297491712476033854e+01 3.967997016536229893e+01 1.978198726068762170e+01 -5.983710581341398438e+00 -1.510606074970322155e+01 3.538991094124548376e-01 3.866248456175186021e+01 3.729150399870366783e+01 -1.250566295998448574e+01 -3.274031639845060226e+01 -1.442643190281496901e+00 2.339917079430489011e+01 2.378629109175349399e+01 8.113496298228163539e+00 -1.135027277887916952e+01 -9.663377947401425416e+00 2.357988426661126624e+01 3.987906203315017706e+01 1.436888624720935859e+01 -5.247023440685311124e-01 1.194996478715978050e+01 3.153166667788870470e+01 3.638148795263364832e+01 1.037586134442703489e+01 -1.105065814816543046e+01 -5.139845037312807285e+00 1.172864855449185992e-02 -6.206931824461979552e+00 -1.459309849923509184e+01 -1.668680782637697391e+01 -1.121172619021184858e+01 -5.278513221852643156e-01 9.488061350158604412e+00 7.218302930382211602e-02 -2.802621052543033642e+01 -2.730559962970949073e+01 -2.069925338610235865e+00 4.370256162018204549e+00 -1.414081434754180222e+01 -3.342494828750754010e+01 -4.230975363419221225e+01 -3.831131191204399045e+01 -6.480772358712439285e+00 1.898542012525471634e+01 5.465020276060847060e+00 -2.124115416540042389e+01 -7.861216545455865123e+00 1.468347882861326426e+01 -1.534665593642803083e+00 -4.508892058533308500e+01 -6.715353388846172322e+01 -5.407645318612696173e+01 -4.000309883394047006e+01 -5.468971198895131636e+01 -9.008886822115113091e+01 -1.098393497866975679e+02 -1.132123096647358267e+02 -1.326393974059451182e+02 -1.570161429721356967e+02 -1.641668879995482371e+02 -1.371199152583449177e+02 5.460359803548633550e+01 6.207251059537801439e+02 1.414877335321543796e+03 1.543183267909435926e+03 3.720968620282338861e+02 -8.263253389366213923e+02 -7.031160155490695161e+02 -2.762998253196616929e+02 -3.791854788795024547e+02 -3.243928418284637587e+02 -4.663461800706337357e+01 -1.892519243957363173e+01 -1.996030584344247529e+02 -2.550398875274558748e+02 -9.264999888316663146e+01 3.430056893553808806e+01 -4.425290231220834158e+01 -1.303986674034847795e+02 -1.087720424365314926e+02 -8.587360379735658000e+01 -1.655775125748375487e+01 6.338928235590054783e+01 -1.848994435637920830e+01 -1.046675072620361249e+02 1.014289333432108187e+01 1.397803074961847472e+02 1.380060606893954116e+02 1.370293077538799480e+02 1.729372764369655613e+02 2.210302071499451984e+02 3.445247461214785289e+02 4.326483740990358342e+02 3.356814226941710331e+02 2.336536563178732990e+02 2.802376828271671911e+02 2.878786408237341448e+02 1.692954708045174073e+02 3.412063527564212961e+01 -9.878268065823397137e+01 -2.012876949951658787e+02 -1.923492430972713407e+02 -1.408088811523460038e+02 -1.912894957370695863e+02 -2.690087909927777901e+02 -2.300668806797396542e+02 -1.533827252611462200e+02 -1.132339613426510567e+02 -1.021551989186053220e+02 -1.348185100642256486e+02 -1.510069683765603656e+02 -7.988230366732976506e+01 -1.502672498101239817e+01 -4.213367557273041086e+01 -7.424567394848340030e+01 -5.317062775502503769e+01 -2.755037855430771288e+01 3.493833026300168676e+00 3.347950379476669980e+01 -1.235835614066089772e+00 -4.452510914440262013e+01 5.980690387273527309e-01 4.940207604820547971e+01 3.595759167745785589e+01 4.126620566602428042e+00 -5.748917580363802848e+00 6.953365561407723661e+00 3.551469773127436724e+01 4.493413014255776261e+01 9.755017328146752931e+00 -1.759375676495232099e+01 1.800584227109461466e+01 4.591188709723846983e+01 2.238483442991388017e+01 -6.230693584677036156e+00 -2.379237152733371730e+01 -3.125908019148052475e+01 -3.802474313036249942e+00 2.932680413210033876e+01 5.628959634586593985e+00 -3.842863430544159087e+01 -2.275918564993680349e+01 1.327562673956677486e+01 2.165341588545012996e+01 1.660866591132916881e+01 -4.223481286145136515e+00 -1.811928930138666516e+01 6.890488389418807813e+00 3.525535413457253497e+01 2.461322800129663335e+01 3.539335252763078365e+00 5.735106125366233876e+00 2.513499629304556038e+01 4.375770334250949389e+01 3.870168594743826418e+01 7.331923379755528103e+00 -1.078717603476458287e+01 -4.199298178779653945e+00 -1.388911032489939323e+01 -3.755521468820028019e+01 -4.144263849414746659e+01 -4.056084922495884371e+01 -3.224858495158037641e+01 -2.171586351885838440e+01 -2.358515554777768486e+01 -3.551928564446722447e+01 -3.694770805378897904e+01 -4.172998799428843775e+00 2.816854243914022859e+01 3.949800323009454495e+00 -3.555477981998715364e+01 -4.793477710585018059e+01 -4.867089014871387320e+01 -4.730605277220315941e+01 -5.996533061008767618e+01 -8.594617991299719506e+01 -1.037809031781687565e+02 -1.035627239373849875e+02 -9.120005613646249287e+01 -9.836597432839921851e+01 -1.120995786171471451e+02 -1.293465681379173589e+02 -1.551590130355159545e+02 -1.567710948532586031e+02 -1.320418753267424563e+02 -3.661437050395656456e+01 3.378127305743794864e+02 1.097286974434188323e+03 1.655216192412116243e+03 9.984899718919939460e+02 -4.370160506027896758e+02 -8.926137775690526723e+02 -4.080219314170597613e+02 -2.970234283103775397e+02 -3.749479455545488236e+02 -1.339670498942568599e+02 2.078374529269123983e+01 -1.053017608031817076e+02 -2.319585068995257586e+02 -1.378579262975103461e+02 2.581717264995350902e+01 1.426546796263151062e+00 -1.208346881942504041e+02 -1.324334942515025375e+02 -8.802975354370633454e+01 -3.733602614302439093e+01 4.143666067554916310e+01 1.288189199969183818e+01 -1.094204433475197362e+02 -6.125695195562908424e+01 1.077183363228557909e+02 1.467196591704687876e+02 1.150123853064261823e+02 1.424808688436511659e+02 1.917356611838594347e+02 2.855358771641177213e+02 4.197353661343215094e+02 4.150007532287816048e+02 2.888672770159580523e+02 2.771111027610994597e+02 3.341101889811475303e+02 2.610408997752255118e+02 1.003908097731826530e+02 -5.967128839303801868e+01 -1.940918277142278328e+02 -2.123177321711754075e+02 -1.493415403771333274e+02 -1.661668203679759870e+02 -2.416257021576925865e+02 -2.348471612549833196e+02 -1.618461149283196789e+02 -1.178876550953709881e+02 -1.050887593817431451e+02 -1.273455730114410045e+02 -1.619945361433897801e+02 -1.180521114648197738e+02 -3.056448726161869800e+01 -2.502596407253354371e+01 -7.553267319124384471e+01 -6.991372471674849010e+01 -2.485038242448362311e+01 3.972416900116433780e+00 2.549282892108599441e+01 1.530283214337183928e+01 -3.968226664907572143e+01 -4.045053413761320371e+01 2.279289916958271078e+01 3.799628171806907773e+01 -7.821169935727570355e+00 -3.021392638468932290e+01 -1.813961098487919799e+01 1.380009375388170412e+01 4.160081715635497090e+01 1.963138471707402033e+01 -2.812354934377737692e+01 -1.880542058967952812e+01 3.022004752821121087e+01 3.756238382669481268e+01 2.003127702449001291e+01 6.981960577901646481e+00 -1.201532167571783027e+01 -4.858033599547177062e+00 2.827532730597332744e+01 2.112861555851280571e+01 -2.548406203954626648e+01 -4.015192824646479153e+01 -8.991461925250668230e+00 1.203819958642056775e+01 4.089398602852608811e+00 -1.087636119131652990e+01 -2.160355268039333154e+01 -4.824052403262091282e+00 1.962024073280616321e+01 1.165602656611617682e+01 -8.429100951622197968e+00 -6.123564197522261665e+00 6.295042620136197975e+00 1.906444468131485692e+01 2.125317889642864699e+01 1.228806837854775402e+01 -2.058100304208272391e+00 9.129399775410117712e+00 3.730091405274858118e+01 2.605051507738854966e+01 -1.068988606112897166e+01 -3.082817216944579641e+01 -2.540539083329527870e+01 -1.889109962849579816e+01 -2.736711476107293706e+01 -4.130013899685283008e+01 -2.883032586241813533e+01 -8.417956836438396095e+00 -1.293433833154945845e+01 -1.865420916097750492e+01 -7.720330921105038158e+00 -2.000395324577468514e+01 -6.603423087610708819e+01 -8.393862195497882794e+01 -6.598681176914459456e+01 -7.317893814487385384e+01 -1.098147305000411933e+02 -1.205829228679211695e+02 -1.057475654367705857e+02 -1.077283281105352444e+02 -1.302548236846638474e+02 -1.498110730036197822e+02 -1.585785801754500142e+02 -1.327043105624669863e+02 3.345838207562412236e+01 5.324454083495181749e+02 1.312871077300914067e+03 1.613957310023145965e+03 6.263752808785893649e+02 -6.984720100959123101e+02 -7.872460298760199748e+02 -3.351858770762806898e+02 -3.769823820263812877e+02 -3.535368950619058523e+02 -6.106910310406102127e+01 3.354081682891172367e+00 -1.737351394950144652e+02 -2.505095215891579414e+02 -1.031327117760668273e+02 4.637958657425365772e+01 -4.496949098077059226e+00 -1.095016637296229334e+02 -1.154027828212771567e+02 -9.036140444500173885e+01 -1.906169924055835807e+01 6.032708372029439658e+01 -2.195563577549209811e+01 -1.422511948347082580e+02 -4.497737609640673639e+01 1.214787783994194683e+02 1.394734096476836669e+02 1.137324907688533813e+02 1.410139229347190053e+02 1.900992071597125062e+02 3.062276314823176904e+02 4.261870294235069991e+02 3.745667601312638908e+02 2.621035841771384867e+02 2.825894186788917750e+02 3.083288041766940637e+02 2.135692548124906693e+02 7.401430705338387384e+01 -7.077684028093339919e+01 -1.839959646440520089e+02 -1.679576264562842880e+02 -1.016959051139477879e+02 -1.593158095095036799e+02 -2.389209957354370317e+02 -1.976416464786765630e+02 -1.355961072948647370e+02 -1.205150091895043687e+02 -1.060967078809166395e+02 -1.302176083567944715e+02 -1.619035751213870071e+02 -9.512580828189398119e+01 -8.869398270845437082e+00 -3.227869360876363913e+01 -9.790139083857971514e+01 -9.643900234836645780e+01 -4.810111549859625768e+01 6.045208792975594880e-01 2.669128878409134842e+01 -1.451840310824241342e+01 -6.196747606280118248e+01 -2.418824698139068730e+01 3.678697646774507035e+01 3.303182494114278001e+01 -1.562706038659704033e+00 -1.582342635443786705e+01 -1.056710464676796057e+01 1.648852810882947040e+01 4.420059468270596170e+01 1.646862744355394526e+01 -3.140678490364806308e+01 -1.369376387838641307e+01 3.194575752802958490e+01 3.676144124618880937e+01 1.432544217393735053e+01 -7.586237239010164224e+00 -7.556451552392697835e+00 3.049268389973860138e+01 5.546589937370138301e+01 2.394207646939976186e+01 -8.780173911394911102e+00 5.903776014283937279e+00 2.712118555549685439e+01 2.838416254277659334e+01 1.884207813305304313e+01 -1.961300916760582780e+01 -5.568562245029508517e+01 -3.206035304778060180e+01 5.029932482883643807e+00 -4.066214938668942125e+00 -3.997922888641392802e+01 -4.759793837999222887e+01 -1.344864352884613901e+01 1.197372448023616975e+01 7.351537240053809263e+00 -1.479601076755292333e+01 -2.891832403945748453e+01 -1.440523602598444164e+01 1.017111308517887558e+01 1.024843036684789155e+01 -7.631872638422766641e+00 -2.127748981504259618e+01 -1.352690913935280470e+01 1.857353621756125150e+01 5.764277916629421838e+01 5.039524018599779254e+01 5.968127513176728627e-01 3.644544764468508280e+00 3.739554149420188622e+01 4.730306921101626649e+00 -4.881003403532197638e+01 -7.449491014964650049e+01 -9.215858000589629739e+01 -9.747033361866449752e+01 -9.734178334939467447e+01 -1.173365909012119630e+02 -1.383386115068257709e+02 -1.487835851375578500e+02 -1.447924385082831691e+02 -1.517405820132071312e+02 -1.696461994745434083e+02 -1.365430746104083539e+02 9.081012960707117543e+01 7.082529027339993490e+02 1.472964937997301149e+03 1.433044251082789287e+03 1.351869761913000332e+02 -9.306588958887375611e+02 -6.463609200836141326e+02 -2.684437778179576526e+02 -3.929492755629801763e+02 -2.780326772229600465e+02 -1.592293989077688110e+01 -3.135901045744861904e+01 -1.912841739973101198e+02 -2.063862534987191282e+02 -4.446325605235653455e+01 4.251703214314068902e+01 -4.950784200935105872e+01 -1.116686755565522589e+02 -9.140366834325409684e+01 -7.087217030558170450e+01 9.508648910225501183e+00 7.610430239616103165e+01 -2.822968633968577024e+01 -1.060713543998061681e+02 3.347138791922130707e+01 1.578433974058806371e+02 1.448483182930681323e+02 1.541611308332966530e+02 1.798907151340403061e+02 2.163917918785240886e+02 3.403683001769405791e+02 4.115926796942507622e+02 3.107675274358462048e+02 2.405926149752741594e+02 2.861581514988134813e+02 2.684595326150019332e+02 1.459271805806145323e+02 2.325908351533870189e+01 -1.065489310064206023e+02 -2.036852653612044719e+02 -1.647884731825808444e+02 -1.244423355139507379e+02 -1.991571260206718250e+02 -2.415256743405816167e+02 -1.802995268443876853e+02 -1.209725745995439183e+02 -9.661426743078587265e+01 -8.788526603014945238e+01 -1.181571812281718650e+02 -1.325180817399082684e+02 -5.629488152502691634e+01 9.065149066400966404e+00 -2.242740976749463755e+01 -5.714728636243236792e+01 -3.835490204217619947e+01 -6.287921066845641782e+00 1.587277866113339009e+01 1.302018346564104689e+01 -3.804413473787305833e+01 -7.018881629499183816e+01 -2.671246926771809171e+01 2.099449423985254981e+01 -1.345619117187980773e+00 -2.821778610244125218e+01 -2.830756260457064144e+01 -2.491096737224490454e+01 6.379878405759369819e+00 3.037809025067043578e+01 -1.016024169801748656e+01 -4.288748974902132005e+01 -1.281746823204127850e+01 1.794938385690339189e+01 8.633753435276057431e+00 -9.227117623400125979e+00 -2.380932037347542263e+01 -1.840467688393697543e+01 1.822457461116609778e+01 2.963919535461725019e+01 -8.662176782608314696e+00 -2.578094051456479718e+01 -5.792856903359790088e+00 9.995145760680626879e+00 1.122374913167829291e+01 3.393315844312656093e+00 -1.532048717484069300e+01 -3.018504300337382062e+01 -6.706788963273710991e+00 2.650922051072200603e+01 2.520766961828926611e+01 1.839214802169686180e+01 2.123178534072564005e+01 1.384933616832833181e+01 1.820019614862287938e+01 1.374712062275034796e+01 -3.575617907211869806e+01 -7.690516855848080979e+01 -7.314874966391241173e+01 -5.410800419457515176e+01 -7.317886694400027636e+01 -1.031065104401384929e+02 -1.065420185031660480e+02 -1.056148739390001765e+02 -1.011520943619538286e+02 -1.079384982572730678e+02 -1.381647108715914385e+02 -1.417375355564807933e+02 -5.841780061692715975e+01 2.304656172911681722e+02 8.699610191621745798e+02 1.543626668121151852e+03 1.264218284375000849e+03 -1.222133139628565317e+02 -9.529908363447219699e+02 -5.457836410583747693e+02 -2.713489779035661513e+02 -3.942918719939007701e+02 -2.084600311832946602e+02 3.426582922321568958e+01 -3.087954399683733087e+01 -2.114291090102288138e+02 -2.027222979098842472e+02 -2.317173149454147207e+01 2.693686903732820781e+01 -9.361376888184859979e+01 -1.703528433562053408e+02 -1.603695834665215898e+02 -1.074347067712459278e+02 6.247419963315308244e+00 3.456721636463618097e+01 -9.708698297791636378e+01 -1.287444195440143346e+02 4.049846361211287160e+01 1.406926424641425228e+02 1.197294479224432706e+02 1.343145075488148450e+02 1.734624989132959172e+02 2.361975938342705774e+02 3.751385785062902301e+02 4.359640336337766371e+02 3.228147019237239874e+02 2.439816742923925688e+02 2.838705912898949464e+02 2.538991471969488032e+02 1.145214857296899567e+02 -3.198471241339001025e+01 -1.631802119664879172e+02 -2.220255618581743136e+02 -1.559611555809036076e+02 -1.310761974094745312e+02 -2.095865910457368386e+02 -2.388845551769052520e+02 -1.735434105243349734e+02 -1.146497558237483076e+02 -8.132867435842825898e+01 -7.937343900721324985e+01 -1.372999438405457795e+02 -1.526253187812808392e+02 -5.101896514961442364e+01 6.272430841779737420e+00 -4.513630028810038652e+01 -8.302357954035699095e+01 -5.763844565668141229e+01 -1.337850481646543166e+01 2.788707960228975935e+01 2.401027997763729971e+01 -2.477625458074591336e+01 -3.905614775479516965e+01 1.547435452869199324e+01 5.219032194722593943e+01 2.690629297615606319e+01 -4.950496907416724213e+00 -1.310296224424295986e+01 3.490929359359981721e+00 4.289268153066610978e+01 4.474452674233881311e+01 -8.765243807446010393e+00 -2.717041330569769286e+01 1.825081384116675665e+01 4.840635777306975029e+01 2.666243514044418106e+01 6.363785261557499240e+00 -2.759319281253535650e+00 -5.038649854828562091e+00 1.599588837524439988e+01 2.742033698252358676e+01 -4.935729066670287324e+00 -3.251992546310713550e+01 -3.171294616837371549e+01 -2.498344445886045051e+01 -1.730877231027544028e+01 -3.231045854300737119e+01 -6.834101367344023004e+01 -6.837687416132250462e+01 -1.806937166208968293e+01 1.812891117285174758e+01 9.892240823499911073e+00 -1.366146476992766168e+01 -2.593146020132388685e+01 -1.803292699136890498e+00 1.736296768230075571e+01 -1.152830055921572061e+01 -6.353811863989575670e+01 -8.093775677762405962e+01 -5.861904907053760638e+01 -4.729125834484719348e+01 -7.684087687151266266e+01 -1.079281252862730298e+02 -1.106145493199010019e+02 -1.056135688159708081e+02 -1.075042630225048725e+02 -1.299303721984181834e+02 -1.469873743098226555e+02 -7.396478936992602371e+01 2.440228526425873952e+02 9.450813505195517337e+02 1.632425090963831053e+03 1.280495847236277768e+03 -1.580191864206457524e+02 -9.644392237052176142e+02 -5.393384287851283716e+02 -2.861190754765989936e+02 -4.225895195365432073e+02 -2.337641439583731824e+02 8.546176400277134988e+00 -5.598915726637936530e+01 -2.213267513875271106e+02 -2.053689776636639976e+02 -2.997341505958168639e+01 2.932834422374437011e+01 -6.907637210796305283e+01 -1.125533703530091287e+02 -9.483062122538066774e+01 -6.469835715064122894e+01 3.435595593836524841e+01 6.346893723165264589e+01 -5.776834024949739188e+01 -7.553017954953871538e+01 8.434949159612742164e+01 1.738024257796720349e+02 1.566793857690199445e+02 1.700299835126736241e+02 1.911759757179812027e+02 2.432289924500321945e+02 3.813702990417149863e+02 4.277985742690107145e+02 3.090125810116052776e+02 2.450241377812795349e+02 2.801832445443574215e+02 2.380097199680407414e+02 1.051235622960714124e+02 -2.615965438961413980e+01 -1.715886165369549303e+02 -2.499675815984981853e+02 -1.971610038467592290e+02 -1.690687646489216149e+02 -2.354158762993309892e+02 -2.637778463435603271e+02 -2.245341136331716996e+02 -1.691919053836831779e+02 -1.164782616368973009e+02 -1.118183302613697805e+02 -1.649679974732104029e+02 -1.549917413212621113e+02 -5.960538034939185792e+01 -1.967385021682848745e+01 -6.854331994048601473e+01 -8.145107769296835443e+01 -4.875322479724602687e+01 -2.046007378033435842e+01 1.245610145974209004e+01 1.717148249251127723e+01 -3.098819205951086886e+01 -4.308116873624295806e+01 1.679646175873295277e+01 5.092333379469530996e+01 1.741807124675964147e+01 -1.269602273897945821e+01 -1.229797832753520659e+01 3.983211539863794837e+00 4.407910592107026559e+01 4.262945769561083864e+01 -1.529079042256257104e+01 -3.109368564802361945e+01 4.198050349462791431e+00 1.335657927440356474e+01 -1.884424424343949189e+00 -1.595452016773859505e+01 -3.401853997343356184e+01 -3.412370988333854882e+01 9.264296136756062339e+00 2.654252330687794270e+01 -1.620664787967468712e+01 -3.848888190274287524e+01 -1.594456343276764443e+01 5.637929036908730041e+00 8.766231347751189062e+00 -1.604485834434199987e+01 -3.910309034271804762e+01 -2.760226194416604173e+01 2.279094089031541870e+01 5.373623304171137960e+01 1.602819544290382225e+01 -1.665682039242453882e+01 4.333981659351388238e+00 1.459189763747483681e+01 -5.095803136306694014e+00 -3.227894625323396838e+01 -6.436451134717023592e+01 -7.144197272266566756e+01 -4.927198440512898259e+01 -4.576292543780361655e+01 -7.482897485979781038e+01 -1.031508312163287115e+02 -1.084904951508243158e+02 -1.058891624353770169e+02 -1.125859122695858190e+02 -1.258135987788115528e+02 -9.205434392702338187e+01 1.876120442307359042e+02 8.873780775648427834e+02 1.617687670694104327e+03 1.315032640059247797e+03 -1.464157732914813437e+02 -1.024044583285767658e+03 -5.971192502702464253e+02 -2.840618240924138149e+02 -3.991368489043451859e+02 -2.336566688109645611e+02 -1.129037214413016876e+01 -6.691335875105333741e+01 -2.218775597716856396e+02 -1.984027976830151658e+02 -1.915037099748796834e+01 3.733627078269645949e+01 -7.078294852139528359e+01 -1.188326842227314017e+02 -8.890784789655116072e+01 -5.184095769645421115e+01 3.398682748820355215e+01 6.637830504661906161e+01 -5.502710852462674751e+01 -8.884624390339607203e+01 6.423488438927934396e+01 1.490205111100137003e+02 1.265286819658960837e+02 1.536993613514562753e+02 1.961093270515991946e+02 2.510429582852808039e+02 3.691651341638124109e+02 4.163251186837135265e+02 3.041547634062915790e+02 2.405770676269802379e+02 2.802729882077209140e+02 2.252287824224806059e+02 7.753144545574737379e+01 -4.736538071758390345e+01 -1.635197039546410736e+02 -2.165021714727353981e+02 -1.517111214779075397e+02 -1.321827468522472202e+02 -2.026621590812706017e+02 -2.177658606122823528e+02 -1.502215473853928813e+02 -1.053716179079346347e+02 -8.930471765811253704e+01 -9.711458901503154095e+01 -1.524817086735714042e+02 -1.497673912005195120e+02 -4.876253572733457275e+01 -9.524242668680338753e+00 -6.742315241560180539e+01 -9.039618454801382086e+01 -5.060527005588475191e+01 -1.294085638510038549e+01 1.343508405139957773e+01 2.014061561055340377e+01 -2.336672449386123418e+01 -4.059066368582588780e+01 1.800774906006062537e+01 4.692437770084366377e+01 7.709540802991908137e+00 -1.948066423172199535e+01 -1.672355179887202326e+01 -7.155129199325066303e+00 1.074225018291881284e+01 -2.939952451378744946e+00 -4.673265164110403447e+01 -5.841067684480971423e+01 -1.589365067632826189e+01 5.837434030693439801e+00 -6.753724314906075499e+00 -1.358498423194029670e+01 -2.572006187379114550e+01 -2.101199895757580194e+01 1.440737184972481977e+01 2.030547452160996968e+01 -1.765895565275896573e+01 -4.596670790010110608e+01 -3.389941704494188457e+01 -6.293266628366524174e+00 -7.029214011068297907e+00 -3.292688847238837013e+01 -5.048244564311569604e+01 -2.499662324136065905e+01 3.912872731563665951e+01 5.077211523450538522e+01 -3.532921917604656237e+00 -1.826617356901947531e+01 3.222850821105534003e+00 -6.006178105972166392e-01 -1.835858264031691789e+01 -3.954561080200501522e+01 -8.083678027061951354e+01 -1.064470645553092396e+02 -8.567034322296865412e+01 -7.005487515498354867e+01 -9.564633998807302362e+01 -1.212345227055192254e+02 -1.338465527519154534e+02 -1.386590203153397454e+02 -1.316508010889167792e+02 -1.090157851667942879e+02 3.290125008088890013e+01 5.211371969220375604e+02 1.334241891392543266e+03 1.640457367586256851e+03 5.618475961157562324e+02 -8.005978358429889568e+02 -8.194805146475296169e+02 -3.177675255457116918e+02 -3.457302451365014804e+02 -3.180672728179491173e+02 -5.434356307635775352e+01 3.856438672027550751e+00 -1.509613331434190684e+02 -2.161425496319748163e+02 -7.126256322324344694e+01 5.493551116407999046e+01 -1.647997538485768487e+01 -1.027251237792470278e+02 -8.585536493823484250e+01 -6.307816502970315753e+01 -6.409537045614686512e+00 7.427264535568409087e+01 -5.963673593552328178e+00 -1.118541568860068907e+02 8.662573733490679828e+00 1.662271305355390325e+02 1.597860048492042040e+02 1.420568059875850793e+02 1.799755660287836747e+02 2.063331714776662125e+02 3.076582379624671830e+02 4.216327570687291200e+02 3.650645486126320520e+02 2.468731117198200309e+02 2.617645990842228798e+02 2.673075205800537333e+02 1.515051075539346925e+02 1.335490398680219393e+01 -1.119662336046166615e+02 -2.085343655894237145e+02 -1.865933986360112158e+02 -1.262056162071100260e+02 -1.801233200924972664e+02 -2.421469388429556489e+02 -1.894079504664809122e+02 -1.292461702211941486e+02 -1.228691974255444421e+02 -1.049820233757205017e+02 -1.234398003930472072e+02 -1.530900593186824779e+02 -9.085744977102433495e+01 -9.044349943927677771e+00 -2.543245833173667592e+01 -7.684368025912155531e+01 -6.781984073515789646e+01 -2.939450259131282905e+01 8.320463169800536463e+00 2.364866012969013198e+01 -7.419111958723052958e+00 -3.583682640953921350e+01 1.139820182748025879e+01 6.047162737964251988e+01 3.151528674915706318e+01 -1.185006578025704016e+01 -3.186723364452134888e+01 -3.274104672620170930e+01 -1.652744865805806151e+00 2.640960962500775722e+01 -1.193442078395799122e+01 -6.206761827242597462e+01 -3.521971925924284363e+01 1.642476177654597791e+01 7.292795122791271289e+00 -2.222556670996032580e+01 -3.573229297953386663e+01 -3.247791964524319752e+01 -6.486031501131617638e+00 1.439209547570196257e+01 -4.164037986868670771e+00 -3.697046492007331153e+01 -3.483482890779852426e+01 -8.080632432056839676e+00 1.802528156698685891e+01 3.405842930936146473e+01 1.312436333573811353e+01 -1.649173165393547791e+01 -8.023337101252391024e-02 1.131077592927053921e+01 -2.708295674118453888e+01 -7.305931024451312794e+01 -7.103695196310387416e+01 -4.424471979579010394e+01 -4.600171315041770725e+01 -7.338188981198194938e+01 -1.104222751651677896e+02 -1.433125108179374649e+02 -1.410019946357930962e+02 -1.238940032110377558e+02 -1.440985752722990014e+02 -1.688609035504689189e+02 -1.200797788758964373e+02 1.401052088667728981e+02 8.061644246100609053e+02 1.588197529766062416e+03 1.428506877396488107e+03 -4.528809396205469184e+00 -9.874541594848052455e+02 -5.941518281192669519e+02 -2.675358886609487854e+02 -4.102700688557148396e+02 -2.461095635256089338e+02 1.525932566435151116e+01 -1.877191095291292200e+01 -1.870341977510448146e+02 -1.923437402155010147e+02 -1.934271129324721272e+01 6.133029901944625806e+01 -4.302277799141570114e+01 -1.123522798692401636e+02 -1.021061159397902287e+02 -7.818152052399845786e+01 2.052029174218580110e+01 7.909794991802115760e+01 -5.484593230955263721e+01 -1.302865771391281839e+02 2.977265555006470166e+01 1.542779068300641825e+02 1.397870893412951432e+02 1.521001495401638124e+02 1.872201239775968133e+02 2.397567860378235025e+02 3.719158902288491504e+02 4.430000121652487906e+02 3.408774182436274600e+02 2.514386441569452586e+02 2.649693671765277827e+02 2.185614235798263962e+02 8.767663173708866964e+01 -3.787354824774824635e+01 -1.656196203954702924e+02 -2.312613359018608321e+02 -1.640681091958998081e+02 -1.167263923082418273e+02 -1.841805584979555590e+02 -2.175850818075943494e+02 -1.501018149451966224e+02 -9.765246753986593831e+01 -8.167256717896098905e+01 -7.412844942095135536e+01 -1.176414348697143595e+02 -1.439633920652651398e+02 -6.609016113685565585e+01 -4.050467351099335644e+00 -4.743844291947723235e+01 -7.815121009509367411e+01 -5.469549913053752022e+01 -1.507809201229237139e+01 3.213347230235063279e+01 4.015817343889421664e+01 -2.215084130441675470e+01 -6.255444225572451700e+01 -1.071319509427108940e+01 3.674573223948854661e+01 1.128520133009342175e+01 -1.410209712851999875e+01 -1.861851413245286935e+01 -4.491967257462596841e+00 3.681392290571893255e+01 4.198799803003373654e+01 -1.143049030625061491e+01 -4.061822055571857959e+01 -2.102568641071890809e+01 3.481986885350396133e+00 7.447719095640277509e-02 -2.156593154358791509e+01 -3.857722401635942333e+01 -3.252924799724350891e+01 4.581093121694750359e+00 1.562779882214978322e+01 -1.675348893124570893e+01 -2.881282581154336953e+01 -8.328417556319537951e+00 2.347763831696099590e+00 -2.152146498969365496e+00 -7.079308142667707138e+00 -2.483068544533350419e+01 -3.117557784190589487e+01 4.279309745422144928e+00 2.807113021082624371e+01 -2.460884066555140581e+00 -2.838352880666782596e+01 -1.196021909470023203e+01 1.159360053747980679e+01 2.051865255068976168e+01 7.671195253145354442e+00 -1.574519173790011273e+01 -1.943876394326737511e+01 -9.415432850484108940e-01 -1.050315616278623132e-01 -1.860920623269503693e+01 -3.496631810782378125e+01 -4.548930056527289878e+01 -3.503589975078676133e+01 1.199042275723411066e+01 4.197926980319748225e+01 1.080932284818999634e+01 -2.819499689818066557e+01 -6.085610653873992248e+00 2.469458714474883365e+01 -4.595036643955199729e+00 -5.046343878947710948e+01 -5.970121274573136816e+01 -5.241269818456298424e+01 -5.450475447020220798e+01 -7.237406922979519663e+01 -9.837807437933338406e+01 -1.095722008982051818e+02 -1.143435911420618822e+02 -1.195383722960618655e+02 -1.317058038722929325e+02 -1.508173146889384952e+02 -1.453761340470305186e+02 -9.213189901390606451e+00 4.703973743447878064e+02 1.299780375768634258e+03 1.709313998041459399e+03 7.761115212811089350e+02 -6.627865369162748266e+02 -8.734248496005806146e+02 -3.538203763567319129e+02 -3.447276797205498156e+02 -3.879166103274554871e+02 -1.073717170060354391e+02 1.001668833436914419e+01 -1.384402215747812761e+02 -2.430516964716110238e+02 -1.280043470917895547e+02 2.977650206591740201e+01 -5.814176554094740990e-01 -9.781557385224819257e+01 -1.066323863519035058e+02 -8.904335529500890800e+01 -2.459004347416650305e+01 7.477256130060266059e+01 1.947501651268121847e+01 -1.170071077845874896e+02 -5.260959197755835959e+01 1.178544939039649648e+02 1.445938129535426810e+02 1.179272116982069889e+02 1.531767698067289132e+02 1.964014787419710046e+02 2.927037256430688785e+02 4.164475216354222766e+02 3.797818843827922137e+02 2.566667619944228136e+02 2.534260284216590833e+02 2.813165613307801891e+02 2.017203786285372473e+02 6.628936979212438985e+01 -7.582028378638250388e+01 -1.976976074314226537e+02 -1.933015153232912553e+02 -1.139715723613073948e+02 -1.472561784235127789e+02 -2.261817028054638001e+02 -1.972390292354666599e+02 -1.358540736131407130e+02 -1.123524487712204234e+02 -8.803645437526621720e+01 -9.640000715995725500e+01 -1.374196744114880744e+02 -9.078089484963010136e+01 3.854556925506208209e+00 -1.169018559720546913e+00 -6.406126473352495054e+01 -6.706670753115335515e+01 -4.297880719350759193e+01 -2.462212563388191100e+01 -3.526208419977335584e+00 -2.931073745426808230e+01 -7.208879004981902483e+01 -4.201260900167152101e+01 2.501588162456327069e+01 2.409483030136668802e+01 -1.604705956100984210e+01 -2.977347308726271891e+01 -1.857627968212420200e+01 1.355913876889829339e+01 4.955711376476467933e+01 3.970446768636938906e+00 -7.374542045136864488e+01 -6.170848331973830625e+01 -2.551342379825624285e+00 1.115450049804719335e+01 -1.224227363402501823e+01 -3.327882520927258980e+01 -3.731801628268716087e+01 -1.036450181600821985e+01 2.123211243985645780e+01 1.131566785508471540e+01 -2.235940663611404489e+01 -1.951960601275202478e+01 1.870489330608922529e+00 1.897811582136041153e+01 2.433203381820385758e+01 3.844957636488134600e+00 -1.463663322201508166e+01 5.832266607532294422e+00 3.039631826286552396e+01 8.887375025798135653e+00 -2.626863993613386938e+01 -2.168359291739041339e+01 2.387217370412409168e-01 1.233895298068020097e+01 1.037351128333189365e+01 -6.761275158904611615e+00 -1.897206475016161775e+01 -4.946353519730021020e+00 2.022688865258944091e+01 2.376329511781391446e+01 3.294506429247813895e+00 -1.269420202595372338e+01 -5.010098574737018140e+00 9.827146225964572324e+00 2.488257777428401951e+01 8.761326405142675355e+00 -1.919699006263163099e+01 -1.094763774983104732e+01 1.531980210533011366e+01 1.936509260832042045e+01 8.003340483583825105e+00 -3.743047277875072965e+00 -6.186360578004478583e+00 -1.846563206727572570e+00 1.178656199274300675e+01 1.233805064849633837e+01 -6.641417748172919744e+00 -1.760528265363253908e+01 -9.719748124156557978e+00 1.556937161790262181e+01 3.877180243471154597e+01 2.905086166560977290e+01 -9.260629928484727103e-01 2.028329004243510258e+00 2.183455255605979772e+01 -4.917369727161572612e+00 -5.313529531640908488e+01 -6.147637782619272429e+01 -5.227616709687585939e+01 -5.602055046097613911e+01 -7.181053953280476776e+01 -8.330132367391543369e+01 -9.152777638417514083e+01 -8.890968010295169677e+01 -9.644269418171280961e+01 -1.315809414740688510e+02 -1.791860421333361444e+02 -1.895271371127487612e+02 -1.007811029724612695e+02 2.434961121834519702e+02 9.697534269027638629e+02 1.624787647470448974e+03 1.194679468533364570e+03 -2.357913281352560375e+02 -9.467862629641801959e+02 -5.005071519421342146e+02 -2.824826919107558751e+02 -4.049417697943130747e+02 -2.034731761478283829e+02 8.118589995085937261e+00 -7.414985395305886584e+01 -2.176294289593771794e+02 -1.743880017504964997e+02 -4.026673967020447442e+00 3.014449786461465663e+01 -7.620167085477559965e+01 -1.201013004385744409e+02 -1.010130743979962489e+02 -5.437700559788085286e+01 4.070505245615277090e+01 3.499489207736358054e+01 -1.099627273159082677e+02 -1.166867280046794235e+02 5.388064716965259748e+01 1.363853069269040645e+02 1.025970051214912928e+02 1.092423595852322933e+02 1.476429136194287253e+02 2.215486267540271683e+02 3.649563041175356943e+02 4.077963945809613051e+02 2.949292219999168196e+02 2.453647049138882323e+02 2.927230533413538183e+02 2.641813374111551411e+02 1.349553555136479019e+02 -5.776101297352843389e+00 -1.422545763147240905e+02 -1.964342268666020175e+02 -1.390409944636866726e+02 -1.276778927034852558e+02 -2.082574897342204565e+02 -2.287908767403600905e+02 -1.660685198101541573e+02 -1.177659573250210343e+02 -9.520235308417987596e+01 -1.051184050427146133e+02 -1.457329415792652583e+02 -1.250223670241503982e+02 -3.052598548275362944e+01 -6.278933412578352247e+00 -7.166336106142772167e+01 -9.743463157204361380e+01 -6.022646147161034236e+01 -2.200858371116297718e+01 1.522901435738291553e+01 1.266294223487128257e+01 -3.881666888871756527e+01 -3.618946171502421549e+01 3.055620398057696718e+01 5.067710489508156257e+01 -4.421396591540417198e+00 -4.546538690275566097e+01 -4.132291894166551316e+01 -1.351353526722764364e+01 2.669950145399983299e+01 3.010210475280842957e+01 -2.522348465572980913e+01 -4.426566578139284047e+01 1.087087087550203224e+00 2.838338792563982338e+01 1.641882193704316606e+01 -3.956894005061799557e+00 -2.009277379569058297e+01 -9.117186760789184774e+00 2.763844450474751824e+01 3.579622955510613735e+01 -1.683562865257056629e+01 -4.066248574964852480e+01 -1.130549041911496211e+01 1.141795343058171674e+01 1.443013111459685938e+01 7.596578115036232148e-01 -2.092362523141423125e+01 -8.328798343404846705e+00 2.363481702085179847e+01 2.273608299720460835e+01 -2.779081163124152543e+00 -1.131148868784080008e+01 2.665101140754155828e+00 1.699698374280513491e+01 2.583593639973247491e+01 1.643573080714399381e+01 -9.453739627465708395e+00 -8.796351763651037103e+00 1.925830540510522582e+01 3.333711326220431204e+01 1.822576894110628842e+01 -4.733335065146643039e+00 -1.417093973991435218e+00 2.193873139633399916e+01 2.830548036969973680e+01 8.341663037446684470e+00 -1.424982055441424222e+01 -1.648706524088821013e+01 4.525799538466600325e+00 8.391910356516625313e+00 4.470442415418530047e+00 -5.629029766097624510e+00 -3.248405663382265374e+01 -4.445670623532528509e+01 -2.363416638469659503e+01 1.737216114484779306e+00 1.081135177598526731e+01 1.329504092894040568e+01 5.757598314267211137e+00 4.877781309464131354e+00 1.829922052212117833e+01 4.861148703107281754e+00 -2.754225747537471847e+01 -3.148210295326768460e+01 -2.588031816125177187e+01 -3.768626680251949779e+01 -6.509006628917680359e+01 -8.325017664845223919e+01 -8.534290090725707500e+01 -1.113632480185018636e+02 -1.461628976628614112e+02 -1.647756252049233865e+02 -1.964062864277314304e+02 -1.940036553833002415e+02 -5.934771522142541045e+01 3.448774998538282262e+02 1.094582610922862386e+03 1.614895347822576696e+03 9.218103747663866443e+02 -4.995439834282800007e+02 -9.097266329366503896e+02 -4.134122428288492870e+02 -3.284329630007146648e+02 -4.044072492355109603e+02 -1.553721133333968396e+02 1.038868965530402200e+00 -1.274317018820955667e+02 -2.575513749586759218e+02 -1.703307023692429141e+02 9.450794472438305505e+00 1.023285776419316839e+01 -1.069894621194393096e+02 -1.302067944610569725e+02 -1.022138334911957287e+02 -4.156049900123316121e+01 5.221590321733582840e+01 1.353339702215471618e+01 -1.206091736669109196e+02 -7.448815916559728123e+01 1.001915304449313595e+02 1.433517377009815448e+02 1.089803931406382844e+02 1.356650983217349733e+02 1.735986760612051683e+02 2.684982607730139534e+02 4.199235562862629649e+02 4.195990892195698052e+02 2.906942168258663060e+02 2.762459556104248577e+02 3.316018516654347081e+02 2.695815267212386743e+02 1.218044191998075121e+02 -3.004714774087188900e+01 -1.664211707822156541e+02 -1.895382627248085328e+02 -1.220429886258560686e+02 -1.517136359294015051e+02 -2.461118436372006215e+02 -2.372278036293488128e+02 -1.675628041764514080e+02 -1.190700530903075247e+02 -8.711056072195101763e+01 -1.043499010719648226e+02 -1.525473261902258457e+02 -1.159478183656259489e+02 -1.807268217347446537e+01 -8.631858467545928448e+00 -6.983412309079098179e+01 -7.328763942145889132e+01 -3.107967600832230204e+01 5.742098694949445914e+00 3.399196245009885331e+01 1.601358809379329529e+01 -2.676549686346675472e+01 -1.070061206819489641e+01 4.170138355077910575e+01 3.749714427354916779e+01 -2.005765366996499210e+00 -1.903196532403559615e+01 -1.284247850805036251e+01 1.900199019155137847e+01 6.210725212203741563e+01 4.178949824706529625e+01 -1.546450585501583852e+01 -7.350656922851713126e+00 3.205005212750795351e+01 2.527683535504277756e+01 -1.532377340307908220e+01 -4.603871992126667578e+01 -6.106280228066046334e+01 -4.133485566124905830e+01 1.702860303889028426e+00 6.666279580443137398e+00 -3.506080566237062612e+01 -4.445419172953310039e+01 -1.287884493878861392e+01 1.647714187091181515e+01 1.595051507350791198e+01 -1.069118595626776802e+01 -2.401026797262552037e+01 2.147532524656059760e-01 3.122413082617011781e+01 2.767773510339511134e+01 1.425426987295159709e+00 -2.013174508685957598e+00 1.702215492320072343e+01 2.582815513398760032e+01 2.137411420492297509e+01 3.333333074313716171e+00 -2.620949845260531319e+01 -2.451280581196045461e+01 9.419193265603082565e+00 1.476807073624553901e+01 -1.704462231244853498e+01 -3.577982342893179180e+01 -1.981357500979948938e+01 1.926524911852327770e+00 1.048295851944667412e+01 -3.796810438482420391e+00 -2.869428103305082089e+01 -3.534570069718130014e+01 -2.740194364912662550e+01 -2.147352385897293203e+01 -2.946471823304866078e+01 -4.409837295970653770e+01 -3.875850149527065014e+01 -1.760602035275766308e+00 3.627931365065585823e+01 1.610044357200441212e+01 -2.948015969956507831e+01 -1.892457316437376846e+01 2.489091284205981580e+00 -1.635364856401638178e+01 -4.689731124565106057e+01 -6.433673298360368165e+01 -6.651271535064402940e+01 -6.663566028472060054e+01 -7.371112164169707626e+01 -8.259218154940285217e+01 -9.521898218535173442e+01 -1.096895893078589665e+02 -1.283735461075846729e+02 -1.524270084371813425e+02 -1.562374719202161373e+02 -8.502186826727758273e+01 2.254073176479800225e+02 9.505954581528989138e+02 1.648793294720455378e+03 1.265398689153222449e+03 -1.825210134831683320e+02 -9.502843169457524937e+02 -5.095754902458838842e+02 -2.725094182930898796e+02 -4.021587361798166285e+02 -2.060719716066964224e+02 1.933292514261231609e+00 -9.620846613856413398e+01 -2.523868057340579867e+02 -2.029530734791199507e+02 -1.644184178611647340e+01 8.581356263867723655e+00 -1.130275268956400652e+02 -1.395659374020163739e+02 -9.914653504340714107e+01 -6.782840312374565883e+01 1.829581805256744076e+01 3.309989461784604003e+01 -9.288992824076166244e+01 -1.045213454032339371e+02 6.009317781116487112e+01 1.413237426291455279e+02 1.086361271572440899e+02 1.223817364184661187e+02 1.682269027133471013e+02 2.411311382571102513e+02 3.818719836479075411e+02 4.230700953207981456e+02 3.186579245625395060e+02 2.867863133686175274e+02 3.385911804804981671e+02 2.943838668044903102e+02 1.567165304720595600e+02 1.818707025790995502e+01 -1.123737666902762271e+02 -1.898667336592384629e+02 -1.579290313356534057e+02 -1.516253469839014372e+02 -2.319395993958960389e+02 -2.498243540180481830e+02 -1.765838445724360781e+02 -1.205533539466620567e+02 -1.047135045497449539e+02 -1.106471218417979259e+02 -1.412756426814566453e+02 -1.238544090810378862e+02 -3.683868528579658630e+01 -8.377482409604708025e+00 -6.047172705478782007e+01 -7.508404238247052831e+01 -4.207712581438371302e+01 -9.259667888084878840e+00 2.944715440415294694e+01 2.856059311996948225e+01 -2.658749358783499872e+01 -2.593015365277323525e+01 4.457677450159280852e+01 6.732412929539268021e+01 8.741259263064673490e+00 -3.878667470706691489e+01 -3.327005009040718875e+01 -9.236487801989154534e+00 2.053831664583188044e+01 1.927467272195543302e+01 -1.892311618073306079e+01 -2.290051851640781777e+01 8.538521144421681086e+00 1.948013689093399492e+01 -2.218919773381072269e-01 -1.584957126678951411e+01 -2.146108822430011642e+01 -1.043482532739406743e+01 3.067969848352720774e+01 3.588297912151924862e+01 -2.972620709701623287e+00 -8.181290836188949811e+00 2.648464725166271805e+01 4.544722132590091235e+01 4.072958215721281761e+01 2.396127616991337206e+01 6.352727022678895885e+00 3.728836357596406081e+00 1.249687809269893002e+01 1.643433863311585696e+01 -5.125717870071752280e+00 -2.391506918096582623e+01 -2.270857849919479676e+01 -1.894399419366415671e+01 -2.151866870227908990e+01 -5.009251941924240725e+01 -8.155355261548106682e+01 -6.685321337413112985e+01 -2.717765594776437865e+01 -1.386632653571965790e+01 -3.069436958731076714e+01 -4.166465971274948998e+01 -3.188928053011283126e+01 -2.070978920522979649e+01 -9.945626653273381024e+00 -1.981503074333725678e+01 -5.088676883422640884e+01 -6.008621400044515326e+01 -3.811575200250307205e+01 -1.156222993342142402e+01 1.051206775592012299e+01 6.956577442261814070e+00 -1.446490151527320123e+01 -1.237343748318279424e+01 1.411557252891548409e+01 2.594945077635124608e+00 -4.448323299723896440e+01 -6.300044174216267834e+01 -5.013466112814208486e+01 -5.346078785002325873e+01 -7.010333272723907783e+01 -8.455333623302423973e+01 -9.781530564108312831e+01 -1.054415099878466862e+02 -1.030238214080899013e+02 -1.103442295767487593e+02 -1.370586251310523380e+02 -1.249623325289161357e+02 2.929897758194489654e+01 4.932784704129749684e+02 1.257416922554376924e+03 1.632343800649124432e+03 7.243400642676479038e+02 -6.646655012811247616e+02 -8.533538106171369009e+02 -3.461338546098271536e+02 -3.343841381139752116e+02 -3.754037185856514611e+02 -1.206100855738662005e+02 -6.426364417758963832e+00 -1.419949310412681598e+02 -2.416318568215596088e+02 -1.343708630524862997e+02 2.077212881169495517e+01 -6.550390823142559604e+00 -1.093344140188227129e+02 -1.144560588969958275e+02 -8.992156609167349757e+01 -2.836227221259789388e+01 6.484227471756115335e+01 6.719929597911179719e+00 -1.184113687530978183e+02 -4.224323401836598180e+01 1.201690013467388098e+02 1.456675755422845668e+02 1.211757883354681837e+02 1.475274828350163716e+02 1.852786193234431380e+02 2.795371086291481788e+02 4.080543738185523353e+02 3.882023031760285221e+02 2.764038346786995248e+02 2.771929462907423840e+02 3.178747572518486209e+02 2.509529494251918322e+02 1.138387553883113839e+02 -4.158024829346832973e+01 -1.707105187518387766e+02 -1.856226737822588859e+02 -1.398536605537505864e+02 -1.843352064644186896e+02 -2.585052309091576035e+02 -2.254721054467311205e+02 -1.596356760407800550e+02 -1.263211094437200757e+02 -9.556984145992178981e+01 -1.153048126922297598e+02 -1.568198640463016318e+02 -1.053640876448306472e+02 -1.830285194475672839e+01 -2.295477473129514934e+01 -7.994377670708470873e+01 -7.463765985227087185e+01 -2.948615708045394967e+01 8.828619896781555454e+00 3.253054646308528675e+01 7.746510366355313648e-01 -4.273906019296850900e+01 -9.599543176285427748e+00 5.481546203670798434e+01 6.111678999787154254e+01 2.541561973978261690e+01 1.579844682563878111e+00 9.600914962446579493e-01 2.326203487839799067e+01 4.036862456275696331e+01 9.268570909997869478e+00 -3.863316434646501563e+01 -2.579131201860754530e+01 2.433879770609221893e+01 2.956581053836128348e+01 -5.404984632772236175e+00 -3.864992623738716304e+01 -4.616135116666178817e+01 -2.349152984873542138e+01 6.276977076761948382e+00 1.835879724833506532e-01 -3.659793836393938449e+01 -3.529081829173960472e+01 -6.114697457894576971e+00 9.582251440667384212e-01 2.210797809478349585e+00 -1.852682726866337504e+01 -4.479761300021078796e+01 -1.912451927625343373e+01 1.791907505031488057e+01 2.286511601961997897e+01 1.457405979752777725e+01 1.498174545112686395e+01 1.810211381694429988e+01 3.501950958012540838e+01 3.892660486179313750e+01 -2.664575549964992796e+00 -5.761558174281566380e+01 -5.974680528490107889e+01 -4.228280269028877569e+01 -5.597924078587139007e+01 -9.073170064382748023e+01 -1.243885313586441299e+02 -1.380139280477886246e+02 -1.271496863201804928e+02 -1.310477062984097643e+02 -1.583967483875528899e+02 -1.825035115636418084e+02 -1.203909175780174081e+02 1.554087529121084970e+02 7.807264005511148071e+02 1.501463326574045141e+03 1.340624457763479313e+03 -3.968953465756202803e+01 -9.957204623462845348e+02 -6.196076947293154262e+02 -2.888281601958258875e+02 -4.227197606347622241e+02 -2.602711956736225716e+02 1.505042695585724566e+01 -2.328153450123231138e+01 -2.030323356746418995e+02 -2.061190134998196584e+02 -2.663914591310192392e+01 5.735042640797558278e+01 -4.475097778087736344e+01 -1.166513541117581383e+02 -1.001974899828156396e+02 -6.868709233895162924e+01 2.980025333579166613e+01 8.281942355908113029e+01 -4.602617579727106545e+01 -1.040133153342515868e+02 5.132223335564147959e+01 1.550741992388643098e+02 1.269726072301145763e+02 1.379476974506993940e+02 1.749472085567316242e+02 2.237607572864398833e+02 3.670009905670519288e+02 4.434763802680540152e+02 3.370461337274596758e+02 2.592553878577865021e+02 2.954379650355816125e+02 2.683842082704716177e+02 1.397791849296688156e+02 -3.701264822382760222e+00 -1.488124943450099806e+02 -2.258888571701061494e+02 -1.790817169066527867e+02 -1.444218746079870641e+02 -2.144272896006504254e+02 -2.535534673078380195e+02 -1.970326015612681374e+02 -1.292209963397295667e+02 -8.839901502118000565e+01 -8.882304299731855224e+01 -1.428532836041966334e+02 -1.448199770990389368e+02 -5.270889988746386479e+01 3.659605490079263834e+00 -4.267031020359199545e+01 -7.980733958668693617e+01 -5.514435724847560039e+01 -1.807244687264759264e+01 2.258214776784114974e+01 3.925389938141013602e+01 -1.208633522620345957e+01 -4.243765262603284327e+01 1.660107404116581264e+01 6.549909776012050600e+01 3.418704307002824549e+01 -1.416847635744594314e+01 -2.615334340260152501e+01 -2.054088943262191158e+00 3.482864336379203962e+01 2.826220811095760510e+01 -3.176109898052625269e+01 -5.262007110836351842e+01 -1.346535732784660766e+01 5.120518433265441871e+00 -2.435673554035212351e+00 -1.253237230681553349e+01 -3.119435202172443411e+01 -2.870791642680097766e+01 1.071317079793344540e+01 2.811556720720248848e+01 -1.158893660093766265e+01 -3.914810298543265787e+01 -1.409950950933559888e+01 1.687411103055156403e+01 1.720061648462865378e+01 -4.434422227350203194e+00 -3.407298632454247667e+01 -3.096552314363322012e+01 1.974400406643900396e+01 6.195200436607316874e+01 4.387527501149168785e+01 -3.005805607748609276e+00 -1.239017278969483371e+01 9.882103941905504563e-01 -9.340883724139498190e-01 -2.690127533353705402e+01 -7.594638046662352338e+01 -1.001683459051661487e+02 -7.130579303063720431e+01 -5.794444467230503193e+01 -8.766074422907881569e+01 -1.257099221258809081e+02 -1.426248680245257390e+02 -1.412083692703600093e+02 -1.450074861104453419e+02 -1.514993517700334564e+02 -1.249592600298932865e+02 7.417507052792595346e+01 6.678145644798095191e+02 1.479309275453296550e+03 1.582986656525121816e+03 3.444500532439920448e+02 -9.002731538710482937e+02 -7.490847841221147974e+02 -2.787070033138327858e+02 -3.647182961154814507e+02 -3.055628598766326149e+02 -3.104794125432551510e+01 3.695530738680871341e+00 -1.569225438111057258e+02 -2.098754960455602543e+02 -5.626734722786023468e+01 5.355065891502605524e+01 -3.746402262329793587e+01 -1.198860724661059578e+02 -1.066059417971183905e+02 -9.089667539090797277e+01 -2.314955394080400453e+01 4.208993413004056805e+01 -5.628663317282269674e+01 -1.413942165529114448e+02 -1.231083114475940654e+01 1.155715976146957757e+02 1.005355541738325087e+02 1.089283773103424835e+02 1.569610174668154343e+02 2.013062174115108007e+02 3.271529750410662132e+02 4.332401778481929568e+02 3.582567686210229567e+02 2.589863541666313722e+02 2.988197968330856042e+02 3.017866194838246088e+02 1.742002634835834556e+02 3.335826444094173127e+01 -9.970517836660457078e+01 -2.036369282728982455e+02 -1.914202743470681867e+02 -1.486043561756496558e+02 -2.006109917096345896e+02 -2.482341399141039915e+02 -2.051568542507514508e+02 -1.373959392864514655e+02 -9.790789819947008255e+01 -7.942841128038583065e+01 -1.073287286753602672e+02 -1.313555608763695659e+02 -7.523567867738137238e+01 -2.610681329857299460e+01 -6.657829526522075980e+01 -1.050802351610488046e+02 -8.757832106264163485e+01 -5.749905705940472700e+01 -2.501227760965691616e+01 -1.869321899860676428e+00 -3.099395708327018895e+01 -6.349983817879997616e+01 -1.747629045639006762e+01 4.022222771737068570e+01 1.674996949819103520e+01 -1.844006802143999479e+01 -2.038205172848219604e+01 -7.446880621072279105e+00 2.641289007723402094e+01 4.209719285701780223e+01 -4.837878367063571439e+00 -3.833547613610786442e+01 -4.616348573157622148e+00 3.084684569958858802e+01 2.042318858326003550e+01 1.314778684923945395e-01 -1.569707342941215522e+01 -2.178975920898015772e+01 5.684423851511325232e+00 3.607226042542541933e+01 7.077528881587488385e+00 -2.953980664347243135e+01 -1.864290099108312404e+01 1.135788462489263217e+01 1.772576324046507423e+01 -5.730364413228807713e-02 -2.409914734741838416e+01 -3.584447110360927979e+01 -4.705458790985462159e+00 3.314803965618182247e+01 7.996371175603759873e+00 -2.254946718329750510e+01 -7.113143476116079000e+00 -1.469143734272875257e+00 -2.015118212522797592e+01 -4.046548532072849014e+01 -6.647186877183564491e+01 -8.137766698950976263e+01 -6.963148320313933937e+01 -5.687642325671642851e+01 -8.239031066146769433e+01 -1.167325994643129690e+02 -1.250542837841603756e+02 -1.251547961037631467e+02 -1.239923652555498421e+02 -1.251246075329986240e+02 -7.639339832835423749e+01 2.222729895819900605e+02 9.451249829253672488e+02 1.673963285376253907e+03 1.353763673329842049e+03 -1.165881551008181134e+02 -9.964954017222701168e+02 -5.826293276183456555e+02 -2.705264201338559360e+02 -3.659692283837231912e+02 -1.949899863096412389e+02 1.794314120030463044e+01 -6.089320411135482658e+01 -2.393779711712909091e+02 -2.232169814668876313e+02 -4.257312965093439061e+01 1.576017829514755775e+01 -1.009872935334703072e+02 -1.486124676835393927e+02 -1.034505173771822371e+02 -6.949152177384969775e+01 4.456694273966806286e+00 2.806429534261238956e+01 -9.628838054915726730e+01 -1.181370247437950098e+02 5.066155626013113533e+01 1.344613767009718117e+02 1.011884470685210999e+02 1.234717414425142010e+02 1.799950738676832600e+02 2.439440344255899333e+02 3.671358176250734573e+02 4.235354344790800383e+02 3.219063197847681863e+02 2.623176496773925805e+02 3.100684715886949334e+02 2.676735191778030867e+02 1.263312167974212485e+02 -9.323161803075670662e+00 -1.338239809819454820e+02 -1.879104667427792776e+02 -1.400336573179296238e+02 -1.346360676577409663e+02 -2.093241976168515919e+02 -2.378164123439491391e+02 -1.871565906120926286e+02 -1.446260159694801928e+02 -1.148330908564583837e+02 -1.106752307080079873e+02 -1.628400725554064934e+02 -1.572475935044197115e+02 -5.143757467935076733e+01 -1.263714349488738442e+01 -7.463072378447901656e+01 -1.009623990122021411e+02 -5.959017222136365888e+01 -2.039902299417527942e+01 2.756725286150758958e+00 4.201597621189836929e+00 -3.835334094649274306e+01 -5.277198870426209965e+01 6.914064628613166619e+00 4.010680356238081856e+01 1.253563831178963106e+01 -9.972412266207836495e+00 -1.318720361071733649e+01 2.912760314658616512e+00 3.183747463545969936e+01 2.703372848021209052e+01 -1.551430993423558569e+01 -2.418459423553312604e+01 2.081561312149301912e+01 3.620023999525891867e+01 1.479486443811111585e+01 1.001098947287390795e+00 -5.703442804104359887e+00 5.426444240599024305e+00 2.332405726623619913e+01 8.985952315506756660e-01 -4.225563939441371275e+01 -6.423490545558023257e+01 -5.650468404946362000e+01 -2.381139833198713163e+01 3.766786963463993221e+00 -5.065637801948053465e+00 -3.056611130098118423e+01 -2.495547703610465717e+01 2.629156777691598279e+00 -1.099029727250865207e+01 -6.370737179207001333e+01 -8.827288457734111660e+01 -7.143937479335471608e+01 -6.025134272001981373e+01 -6.356507393633926029e+01 -7.545483065698853409e+01 -1.075993232438451628e+02 -1.332174834930629572e+02 -1.159948069647539199e+02 -1.056181142830440649e+02 -1.326918588283026281e+02 -1.163504603778575444e+02 7.582490070836335860e+01 6.411642230201060784e+02 1.453744998288892702e+03 1.581437223563948919e+03 3.314396828974203686e+02 -9.057700899778911889e+02 -7.232763697804773528e+02 -2.785671825067068994e+02 -3.961525999592292919e+02 -3.299675161806049459e+02 -4.933902433421460643e+01 -1.183622574675596262e+01 -1.702744840823030188e+02 -2.190094093621900413e+02 -7.077714048969744454e+01 3.720372319519696447e+01 -3.822184564171347176e+01 -1.025670103165418823e+02 -9.123763744860563918e+01 -8.975486459133006178e+01 -1.351946683206244160e+01 7.830552281491286237e+01 -1.246471295759386244e+01 -1.102395487336959121e+02 1.473512736337680096e+01 1.573330385252454846e+02 1.473493327814662450e+02 1.439354434503114533e+02 1.939538818956032458e+02 2.434430208135892997e+02 3.575089514039212304e+02 4.478395114848365210e+02 3.747679706637099457e+02 2.784633445081210539e+02 2.930897404992327893e+02 2.810587849778674467e+02 1.613705590011520599e+02 2.015596649259442685e+01 -1.131243134784035078e+02 -2.037724974037794823e+02 -1.689061367123165383e+02 -1.125611637304522503e+02 -1.762831522167774096e+02 -2.505148384002663704e+02 -2.072352794524242654e+02 -1.389328613819285465e+02 -1.115930610236955829e+02 -9.462393746769616598e+01 -1.225395073337726615e+02 -1.642190237979956464e+02 -1.160338180955891119e+02 -3.593573327545229290e+01 -5.125729098060229205e+01 -9.404731142331613114e+01 -8.463767610640849171e+01 -4.316489010901287315e+01 1.088240569894775911e+00 1.399805274460524096e+01 -2.277107815390366241e+01 -4.284185107467307319e+01 1.496454933712947577e+00 4.356544732177099633e+01 3.008255258185584680e+01 6.983535855742652565e+00 2.679875541052996635e+00 1.009571700416808859e+01 3.421113216201547402e+01 3.988781164115597022e+01 -5.965467144574191138e+00 -4.014586448122370399e+01 -2.217196485715786736e+01 4.990925601879991014e+00 -8.939690179250060709e+00 -4.669699135881533891e+01 -6.876682571322511706e+01 -6.227237350626082701e+01 -2.758505951322445071e+01 -1.348584009499828484e+00 -3.074971093193351024e+01 -4.594112750292948988e+01 -1.786968094100058124e+01 2.102616832994348428e+00 4.809804277171257247e+00 -7.266892850791019320e+00 -4.845785024809861596e+01 -8.436885426800427012e+01 -7.031959317651906360e+01 -3.962486645851383571e+01 -6.540082666548305212e+01 -1.057640363861967643e+02 -1.064595293153192301e+02 -1.021523809112875369e+02 -1.066525654929008056e+02 -1.160659399118419088e+02 -1.436909163421882738e+02 -1.607924396190035736e+02 -1.082217047175933544e+02 1.221428662618448868e+02 7.375941065388733477e+02 1.554479807304879387e+03 1.569918658102137442e+03 2.232874245609878301e+02 -9.190914559312763004e+02 -6.514203204711071749e+02 -2.777803333067805056e+02 -4.236496643181847048e+02 -2.886330719910815219e+02 5.660556595731743634e+00 -2.430849407323669098e+01 -2.303016571957691383e+02 -2.571348502147460522e+02 -6.627663041703310398e+01 4.572416944460273669e+01 -4.490750127450104401e+01 -1.264291970617465353e+02 -1.210212616056893182e+02 -9.065115797141382359e+01 6.535205712851483106e+00 8.009842720102592750e+01 -3.592412546437162746e+01 -1.261398203507437188e+02 2.545088367290774300e+01 1.726253369392905483e+02 1.602579339860657228e+02 1.366779954487694511e+02 1.591595363927508799e+02 2.222945954285738708e+02 3.668271424618738479e+02 4.485851453285866342e+02 3.428728498974602985e+02 2.382027418434286119e+02 2.713413590998737845e+02 2.561302473526550330e+02 1.238507541788613366e+02 -1.288272906517591743e+01 -1.501752020443870492e+02 -2.377945041595515931e+02 -1.820037040986352395e+02 -1.188537214293726123e+02 -1.892805253228347624e+02 -2.524812123711854781e+02 -1.898743240041167724e+02 -1.083863222481778337e+02 -7.335399302160594459e+01 -7.052718588246483478e+01 -1.195980818401329770e+02 -1.387144144556019398e+02 -5.078307494681357070e+01 1.992371723594245481e+01 -1.768225896015977838e+01 -6.351453705916635784e+01 -5.691426760689398634e+01 -2.342938850195527678e+01 1.855156989732559580e+01 3.083908420803197004e+01 -2.732272539349678198e+01 -6.772200481722690313e+01 -1.584892091114357804e+00 5.689225076599111475e+01 2.734829745578650062e+01 -8.081434325052617496e+00 -1.098329335022907927e+01 1.418348107388837098e+00 3.621814734113853262e+01 5.546670508310987913e+01 1.635996321872169901e+01 -2.052691229539106743e+01 9.956748856716703955e+00 4.410626805541745910e+01 2.842662174258066798e+01 3.019916968357138298e+00 -1.266677702545521278e+01 -7.746889697480561665e+00 1.687807682519268937e+01 9.201618279231519537e+00 -3.977417704338031257e+01 -7.092660739990499508e+01 -5.669882285578271564e+01 -2.709265926281048920e+01 -1.705716375986011712e+01 -3.260576843585261031e+01 -6.410341643205599382e+01 -6.634786164603512759e+01 -5.811838348822652378e+00 3.672979893263383389e+01 2.920387172648895024e+00 -3.481077713560743092e+01 -2.985518371634572432e+01 -1.779140780197749905e+01 -2.077932993867121070e+01 -4.692327528829107308e+01 -7.412943051563738095e+01 -8.365675200818614599e+01 -7.641436266314528325e+01 -8.265543047142352862e+01 -1.088884579739287091e+02 -1.317127676430262397e+02 -1.430339005992646548e+02 -1.578489561804005916e+02 -1.510484134093526905e+02 -1.298754127884379272e+02 -3.485316160149890763e+00 4.934906222214036120e+02 1.350218441237821480e+03 1.702296807726632778e+03 6.399337994177761857e+02 -7.846599421641201388e+02 -8.623350108844064152e+02 -3.351086165373857853e+02 -3.497979933530694439e+02 -3.431316913310681684e+02 -7.440832293498698391e+01 -8.927733086602362533e+00 -1.678427118168978041e+02 -2.357861491220948267e+02 -8.550153793456804863e+01 5.365524355232376763e+01 -2.496427886262478779e+01 -1.341831194143255743e+02 -1.085386424060066020e+02 -5.813868966943155669e+01 -6.008417441358417044e+00 5.804394713805820061e+01 -1.191493030429128375e+01 -1.155195788833963206e+02 -1.146067374667892658e+01 1.483204046346011182e+02 1.520295957130430224e+02 1.308497204409862036e+02 1.677359054741630473e+02 2.220719230301835978e+02 3.381210834299295698e+02 4.474387374028908653e+02 3.758785913919142558e+02 2.549787937654288896e+02 2.810529837174798899e+02 3.011794598831838812e+02 1.772871875509288770e+02 1.652843460729881997e+01 -1.239604859911863883e+02 -2.282688642330157904e+02 -2.106976988222533862e+02 -1.468302600545664518e+02 -1.844423572306891970e+02 -2.503373329352299379e+02 -2.064181138262823936e+02 -1.278749377208851854e+02 -1.005910082027772745e+02 -9.203685752291326594e+01 -1.114446317928992158e+02 -1.339291160504269271e+02 -6.839704970915767035e+01 6.319318471545279259e+00 -2.210144101248080517e+01 -6.975061719448562769e+01 -4.780885224252116927e+01 -7.593033876950265437e+00 1.003564935495726118e+01 1.872041040147398760e+01 -1.143623706815725605e+01 -5.231864557277563677e+01 -1.460860369546167448e+01 5.006470091806344413e+01 4.025891461916229019e+01 -4.413447732908441168e+00 -2.464895801144492182e+01 -1.025088336597143446e+01 2.544637370383693664e+01 4.242388356936723426e+01 1.266370197185787383e+01 -2.484694369327192831e+01 -9.284768905048922605e+00 1.681430673735677672e+01 6.560584068373182198e+00 -5.472282395933173227e+00 -1.106382611890203194e+01 -1.972628852633620156e+01 6.819144183690628580e+00 3.893078743856933244e+01 6.039529504070470622e+00 -3.547827455712953792e+01 -2.742916322875469604e+01 1.483307665097832517e+00 -4.576527112437867029e-01 -1.636258109384510817e+01 -2.661147002860691302e+01 -3.507328341482957512e+01 -1.301883625063149275e+01 9.356636031950221977e+00 -6.697530661637257410e+00 -3.294226666417303306e+01 -2.870894287467128336e+01 -9.019001006266250897e+00 4.620611942337419897e+00 1.249413384981915787e+00 -2.093329162807673782e+01 -4.055984450485143356e+01 -2.178383609627006123e+01 2.811830656724075084e+01 3.827936024566892570e+01 -2.019154253843296942e+00 -2.477029072147986000e+01 8.799869934437282382e+00 2.748628974143768389e+01 -9.754365050937321868e+00 -6.682016635229591373e+01 -1.047143212679743556e+02 -1.018757391772601864e+02 -8.650163901079272932e+01 -9.519011310756222599e+01 -1.099076846781305363e+02 -1.256303576114639782e+02 -1.406923681563986293e+02 -1.388616144416484701e+02 -1.384515741647536515e+02 -1.651557979192971004e+02 -1.520940207319996773e+02 4.182316638721621160e+01 6.115698561395215620e+02 1.436983052723646324e+03 1.689447963457404285e+03 5.858912994407062342e+02 -7.891624784904111038e+02 -8.098186037321738695e+02 -2.978911775524397285e+02 -3.558965290268159265e+02 -3.431762832948430741e+02 -4.863261277111138980e+01 1.545776151484086824e+01 -1.616975170325569024e+02 -2.465660771686398789e+02 -9.885635708745309103e+01 4.293511615460288056e+01 -3.409398340707377884e+01 -1.370749224477182793e+02 -1.218246503905037628e+02 -9.000523177832921817e+01 -2.676487944672337704e+01 5.921937075746172496e+01 -8.944330391249836865e+00 -1.207974830165642857e+02 -1.628770198575147177e+01 1.484813934516278948e+02 1.462669270995000375e+02 1.146593934957943191e+02 1.566704661189901344e+02 1.983372513774399408e+02 2.907192350196431221e+02 4.081060893007821733e+02 3.611908232871407449e+02 2.498479104708807768e+02 2.686107436411001572e+02 2.983864035238653969e+02 1.987908307187631181e+02 5.952026056162493006e+01 -7.817479900900379164e+01 -1.828529017532904106e+02 -1.711097624755409754e+02 -1.092901494479540929e+02 -1.447814976890882690e+02 -2.222427087875554435e+02 -2.158868195164775727e+02 -1.592805767988616310e+02 -1.096674002103427625e+02 -8.213370770429173717e+01 -1.120069560821958419e+02 -1.408326183125649891e+02 -8.035544692202451245e+01 -3.375908853814930222e+00 -2.233557228994784793e+01 -7.706545776444767171e+01 -8.134110182239061260e+01 -5.446192993756787359e+01 -2.031970219293120294e+01 3.952057194052948752e+00 -1.966027807384296722e+01 -5.260855594789639156e+01 -1.369789381579412790e+01 3.730511653050211862e+01 3.003543199497334015e+01 4.601113251310791519e+00 -6.165221009936507457e+00 -4.898735527081321095e+00 3.767016843084015676e+01 6.359693044529982586e+01 7.081971154297834303e+00 -5.915053320544419080e+01 -3.764175617857151934e+01 1.385616931740148949e+01 1.272432586897397044e+01 -1.422091169837346847e+01 -3.225978493075149345e+01 -4.250898864924614884e+01 -2.253277890917587456e+01 3.369146039361260225e+00 -6.496208657635841988e+00 -4.042489413342004667e+01 -3.924264580349197473e+01 -1.433573040931387865e+01 2.702508919096174633e+00 -8.119619498469594632e+00 -2.900923388356137522e+01 -3.537842367860239534e+01 -1.421601572262492219e+01 -4.504981091982487307e+00 -1.850144207269783792e+01 -2.597305596480009626e+01 5.254021321751559670e-01 3.720551478279105595e+01 3.196060617474031318e+01 7.835437439979902940e+00 6.606486502213057221e+00 -2.735235463473919104e+00 -1.291841551805825894e+01 -1.556371395960888648e+01 -3.506150013519979325e+01 -7.375643532001241454e+01 -1.011894552703000016e+02 -1.008652791088489380e+02 -7.685378004818927877e+01 -7.633994774034543696e+01 -1.233151695326709643e+02 -1.533619544609263414e+02 -1.331816880568213151e+02 -1.255543606871457030e+02 -1.151783141832375037e+02 6.417077003394865642e+01 6.140364802738055232e+02 1.385769350889717316e+03 1.555951803124208482e+03 4.202713380593034458e+02 -8.507740460240205493e+02 -7.817986875454161009e+02 -3.029636708199746522e+02 -3.435903380356523371e+02 -2.824048750747967347e+02 -3.183482115717606931e+01 -2.313183174705466172e+01 -1.884442534645803846e+02 -2.320478167199924258e+02 -7.630533239505658116e+01 4.980013742997799397e+01 -3.011656772828081685e+01 -1.225317344825798358e+02 -1.084955554713273500e+02 -7.442266274838806339e+01 7.531575642679649851e-01 6.497252401572657732e+01 -3.739386751190487956e+01 -1.171360913278060707e+02 2.532576279067841796e+01 1.652282315092390945e+02 1.411489577386250573e+02 1.213723882665308054e+02 1.633063203555984160e+02 2.243476077155528117e+02 3.484970264325123708e+02 4.249473474002826947e+02 3.314895797169887146e+02 2.391808483547326318e+02 2.830792342426669848e+02 2.891324113452605502e+02 1.549262883877700574e+02 -2.536513416427784939e+00 -1.346782130331695839e+02 -2.118092125244609463e+02 -1.702835088034967725e+02 -1.182299463821489525e+02 -1.846921543167599680e+02 -2.450766906749391580e+02 -1.899141231005612269e+02 -1.211290060463483371e+02 -9.133770742379317653e+01 -7.388023312702274836e+01 -1.127330032463274421e+02 -1.445916878208683727e+02 -6.883171384388558067e+01 1.158112067786944444e+01 -2.136220086817257524e+01 -6.592665880186942218e+01 -4.523603465238209509e+01 -9.324187880177680299e+00 2.434374131198044822e+01 3.873342241882300385e+01 -2.468538433969451606e+00 -3.106421727166853941e+01 1.563126021740339766e+01 5.437081704010104488e+01 1.835340901973052752e+01 -2.790292375319852169e+01 -4.912205516710800879e+01 -4.768232746068557049e+01 -1.265919202163310686e+01 8.388629570901914079e+00 -3.410184646029190958e+01 -6.451930469514110200e+01 -2.625457412230701593e+01 1.075635868583630739e+01 -8.821121466488600404e+00 -3.167273802504034208e+01 -3.589677924183265390e+01 -2.830414915798738562e+01 -1.683084190117348911e+01 -1.904141752176319002e+01 -4.581781800512504077e+01 -7.244192345722646564e+01 -5.210873553529629731e+01 5.153280458049893653e+00 3.295365819455431478e+01 9.271143058024811978e+00 -1.837046423888110525e+01 -3.397418609193785244e+01 -2.017506522771028443e+01 -1.380545719018158302e+01 -5.443838485177082731e+01 -8.361374130688059836e+01 -7.248691404963935270e+01 -6.611285166201001573e+01 -7.012193461476972800e+01 -7.573950330520416685e+01 -1.084617779057788169e+02 -1.491871593568825176e+02 -1.495254724088675005e+02 -1.382847401937670782e+02 -1.102103540481534054e+02 8.147490395070543912e+01 6.475671993761211525e+02 1.416340623747450763e+03 1.503806428703022675e+03 2.860812610247998009e+02 -9.138661518525569818e+02 -7.497061607222419752e+02 -2.937150814744117611e+02 -3.531834719180462798e+02 -2.678638471466893520e+02 -1.478300864141576554e+01 -1.408253833760750062e+01 -1.722570681009157170e+02 -2.025410022908544647e+02 -3.735126683291149163e+01 6.410691394313744240e+01 -4.408195097854359545e+01 -1.235505597790835566e+02 -8.004973562162965095e+01 -4.985364571670817924e+01 8.737963666589230627e+00 6.418647528104264666e+01 -3.324881842236569440e+01 -1.020779544282720082e+02 3.712871835375742080e+01 1.685366727562954452e+02 1.521474004274245431e+02 1.443889296876907054e+02 1.811230095649635530e+02 2.285911673190209115e+02 3.533415112875857744e+02 4.389615674250973143e+02 3.491776879366691446e+02 2.586122149512228816e+02 2.907878890409732549e+02 2.543904652722586945e+02 9.965928185249198634e+01 -3.215366564252819614e+01 -1.380979330738188651e+02 -2.145985780786241435e+02 -1.791525938321283320e+02 -1.247152661476054334e+02 -2.002946884689274043e+02 -2.740653406484997845e+02 -2.094071577714771877e+02 -1.305137555006425316e+02 -1.115667597461436173e+02 -1.056735007954568744e+02 -1.352649013868122552e+02 -1.449160067371430785e+02 -6.140216684436185801e+01 -1.377038300874891874e+00 -4.604226671524074987e+01 -7.706572205337731418e+01 -4.009515228992012226e+01 -6.101333205566024098e+00 1.156159118539315322e+01 1.800534951874064404e+01 -2.106298685558988737e+01 -6.333278855359441195e+01 -2.551479576219378487e+01 2.209096240482105600e+01 7.416078519828521731e-01 -4.049172803967199741e+01 -4.886366226849904848e+01 -2.446237256924345260e+01 3.380711208096923936e+00 2.767217087079324234e+00 -3.427169625765337457e+01 -5.426374762279225195e+01 -2.971176543337779208e+01 -1.267222248442703858e+01 -1.347775416972517526e+01 -1.890341075774053081e+01 -3.135359267421198481e+01 -2.402423626562183756e+01 2.388448466357310807e+01 5.114943058177949098e+01 1.017866547959405565e+01 -3.867831048337293964e+01 -2.779010927057429114e+01 -1.147490735687581065e+01 -3.964372950692740005e+01 -6.397014234373931174e+01 -7.874449559975785462e+01 -8.453946062522605587e+01 -6.571962939947651705e+01 -5.698183713066766387e+01 -8.884997701615803578e+01 -1.230327997135837990e+02 -1.312643107582235871e+02 -1.334830930534476181e+02 -1.181540245517411307e+02 1.088367473631227611e+01 4.387256784914366676e+02 1.192810620603478583e+03 1.608720871557520468e+03 7.354698168950367290e+02 -6.693118553473807424e+02 -8.735019104317095753e+02 -3.534528445029833961e+02 -3.127830884498670230e+02 -3.104054606799327871e+02 -4.575481008353706613e+01 4.418064141263296563e+01 -1.140577712843905402e+02 -2.196197078791669242e+02 -1.048447735520820459e+02 3.584556643169658940e+01 -2.848064975534683896e+01 -1.438694496402475522e+02 -1.362901357538415255e+02 -8.928834372396259766e+01 -2.796491796227531168e+01 4.849303128556891807e+01 -1.074454352086412179e+01 -1.179673681248630999e+02 -2.395459901010160664e+01 1.370755439739915289e+02 1.419721374192855023e+02 1.181920768817245744e+02 1.586919572096147988e+02 2.062274698282266741e+02 3.050329033679220174e+02 4.034658212153954082e+02 3.420315089262275023e+02 2.192687075455307877e+02 2.271947771735582648e+02 2.534123387199682895e+02 1.490472470037201163e+02 5.208518758077468114e+00 -1.100134066560206207e+02 -1.890488999439477595e+02 -1.728696383744679110e+02 -1.035148469100422943e+02 -1.280398836841044954e+02 -2.062607284728842671e+02 -1.824100284038641462e+02 -1.063553221607101023e+02 -7.720492284061032251e+01 -7.745594176535408337e+01 -1.049729332833405095e+02 -1.418328203809388981e+02 -8.776139808484144567e+01 1.584403813810761452e+00 -1.218265007249266851e+01 -6.965589923048365506e+01 -6.249441432479037672e+01 -2.086501422163112096e+01 1.822328455113533963e+01 4.247670144856730445e+01 1.053599412056658835e+01 -3.465999765557776868e+01 2.948253943074486960e-01 6.244779193999790579e+01 5.638677934631618882e+01 2.600195918020699604e-01 -2.670655693613252168e+01 -7.273017002339284609e+00 2.928163409744411894e+01 3.694541044508427774e+01 -2.244816240091437987e+00 -4.542806397453396983e+01 -3.156609019333873789e+01 1.267220153472946365e+01 9.637572239621068348e+00 -2.474024156015546083e+01 -4.357722949155974845e+01 -3.941753142821342948e+01 -9.711659059412484751e+00 2.225869721236229637e+01 4.608906497865024932e+00 -2.038118689994842114e+01 -1.134946114603713774e+01 6.078606234156957555e+00 6.158453275779250724e+00 -1.646855195146982709e+01 -5.573338556792207044e+01 -8.662888300084445348e+01 -7.570699488134506794e+01 -4.787049819191859967e+01 -5.927042980354213597e+01 -9.075284407146357069e+01 -1.003780163441458058e+02 -1.122757007958717708e+02 -1.195598864623736119e+02 -1.178060555976963570e+02 -1.417919085080173431e+02 -1.815658991846419212e+02 -1.260882098685752624e+02 1.380198016950881765e+02 7.353907777266980474e+02 1.443409568238907923e+03 1.393989004873208387e+03 1.369269365552800650e+02 -9.186746350609852243e+02 -6.659182617681100282e+02 -2.897791033861502683e+02 -3.907342514478755788e+02 -2.585018341763781677e+02 1.567693025392430251e+01 2.690883998872737326e+00 -1.786955663345711116e+02 -2.164424805454931402e+02 -5.017520420349571708e+01 6.513232670512404354e+01 -1.513487927631565810e+01 -1.087518778014043903e+02 -1.082430243619444497e+02 -6.521333485493006776e+01 3.704292140670476385e+01 8.987970001265304631e+01 -3.318403166555889072e+01 -1.057374378369926831e+02 3.590162649041656806e+01 1.598943143526973358e+02 1.483167790513972761e+02 1.460200103738495443e+02 1.723243133801326508e+02 2.161277613395837989e+02 3.394663501716868836e+02 4.074065734378056618e+02 2.975038003329157732e+02 1.956701622409419770e+02 2.286843257588823235e+02 2.247851107055431896e+02 1.057758503614908250e+02 -2.428569488613225502e+01 -1.431959195800130544e+02 -2.035791466368075930e+02 -1.362742594589603584e+02 -8.804248763039942105e+01 -1.674765279465449908e+02 -2.191649046367584219e+02 -1.594540959744326187e+02 -9.029402116734820538e+01 -5.167978545044275762e+01 -4.882939531011998469e+01 -1.009471792467505651e+02 -1.296983767160953391e+02 -6.208351992656208296e+01 1.913390099430548164e+00 -2.987785629811130050e+01 -8.150018632051505563e+01 -7.132226177603391193e+01 -2.059564228240780892e+01 2.415586786663955365e+01 3.717368324597057239e+01 -5.404465582155722814e+00 -3.569879108236315801e+01 1.208681171749911343e+01 5.616371210441646156e+01 2.804293147258045948e+01 -1.460699545031107505e+01 -2.806280567225967104e+01 -2.055419767854106539e+01 1.286055467492923299e+01 2.741041185985616480e+01 -4.196406470943073685e+01 -9.098696060645055184e+01 -3.955231993699549520e+01 7.283881125772948550e+00 -1.105384678169243884e+01 -4.106325953842093668e+01 -4.682765565115447970e+01 -3.379899069183172600e+01 5.892848159624866966e+00 3.174411261835058795e+01 5.112489978622429376e+00 -1.840132885292552345e+01 -3.993497218394811199e+00 9.530737162858262224e+00 1.158336250213619323e+01 -1.344116786219584903e+01 -5.959495253374753787e+01 -7.047543786822674861e+01 -4.274416337504790420e+01 -4.140934980169460999e+01 -8.641340118628248490e+01 -1.253931830779637124e+02 -1.313267313050379812e+02 -1.232757013857520292e+02 -1.247928874103343020e+02 -1.374140011361573386e+02 -1.322187470155201083e+02 2.359621262977378109e+01 5.601142454895413039e+02 1.357327548254122576e+03 1.537136068080454379e+03 3.714175188120843814e+02 -8.930789249508159173e+02 -7.808186095612770714e+02 -2.968404097962323931e+02 -3.694508532707224617e+02 -3.296380427070023984e+02 -5.278984602453088115e+01 8.163924712329942324e+00 -1.400651848132223165e+02 -2.090782376710273525e+02 -6.841957963450083469e+01 5.472189666028216948e+01 -1.876267761449119931e+01 -9.451084324205781684e+01 -7.339694008719025931e+01 -6.139470537320242016e+01 -8.664111271281393911e+00 6.559967468764777720e+01 -2.058624200783675917e+01 -1.138752520905586465e+02 4.087968241931614344e+00 1.341319767926116810e+02 1.231726445891076196e+02 1.332454966065867268e+02 1.833358581402636105e+02 2.164456273381875064e+02 3.166360299176459421e+02 4.065771870357904731e+02 3.200410695023069252e+02 2.115955564994364977e+02 2.333851568642207326e+02 2.222797594461931396e+02 9.752692305277366813e+01 -1.966885718523124638e+01 -1.182190659553902208e+02 -2.040820809175622514e+02 -1.814766979213990794e+02 -1.097212376949271544e+02 -1.461723916999546020e+02 -2.208766694630574250e+02 -1.982096270258654158e+02 -1.353694441235672627e+02 -1.066148048580844971e+02 -9.095216314619484876e+01 -1.146407136820623549e+02 -1.405169749373822015e+02 -8.043063457929075355e+01 -8.424491287291186126e+00 -2.982630413518776891e+01 -6.095133541707478031e+01 -3.876174910881714197e+01 -2.096437603083025891e+01 -1.607219679131954404e+00 3.531573830635989708e+01 6.376609348295882107e+00 -3.874972379761032215e+01 -1.796435419194679861e+00 4.675878005642981350e+01 2.505508507075295555e+01 -9.308456963179128962e+00 -2.125985456135295593e+01 -2.159437522695972334e+01 4.050745951878591988e+00 1.929052001070754940e+01 -8.360271602753096332e+00 -4.096715744379913815e+01 -2.158002043104326972e+01 1.243698340628229104e+01 1.385986853909150263e+01 -6.968262834534789896e+00 -1.670941612423329303e+01 -8.703207306456050674e+00 3.593803771405416114e+01 6.760901473238070025e+01 1.964825940043758123e+01 -4.964218899641112159e+01 -4.915891058695140714e+01 -3.061316409674925509e+01 -4.124755766424050307e+01 -5.592535240691115206e+01 -7.190467683159829448e+01 -9.160620643665532725e+01 -9.021754228675415277e+01 -8.860015840944683418e+01 -1.208157816535701556e+02 -1.519776763449282271e+02 -1.590053881958988882e+02 -1.576866356694981164e+02 -8.919956978296669092e+01 1.846072445880598991e+02 8.313397736033398360e+02 1.571580232894264782e+03 1.384287485296773184e+03 -1.643355675288442086e+01 -9.586635405904955860e+02 -5.902350915449934519e+02 -2.931983059046118569e+02 -4.185300131999650262e+02 -2.378196458680803858e+02 9.134582012549415708e+00 -5.919644126291582609e+01 -2.424262665634769576e+02 -2.264282651196807876e+02 -1.709392144820592563e+01 5.504743229158397355e+01 -7.615506155320414905e+01 -1.445390946219199009e+02 -1.149139041078174586e+02 -6.848572377620672569e+01 3.863872373938960436e+01 6.639637596876555392e+01 -7.491034261754050760e+01 -1.072111410959018087e+02 6.247730793760172929e+01 1.559457539984959737e+02 1.247103520907857188e+02 1.345130260541724851e+02 1.614887915535032619e+02 2.188076536959623581e+02 3.722630398295686973e+02 4.282303042111478817e+02 2.866067879812374031e+02 1.965870789463016592e+02 2.358465372492265999e+02 1.934503254451312841e+02 4.981562860186457442e+01 -8.652096730414554315e+01 -1.942172506901596307e+02 -2.270288789090753880e+02 -1.565418561969987081e+02 -1.249554137795210664e+02 -2.006054141996955877e+02 -2.267547341454740888e+02 -1.566071153976171217e+02 -9.696016301860233000e+01 -7.302800560817051689e+01 -7.940214725372770488e+01 -1.281786868248433109e+02 -1.208072202139512257e+02 -1.535083646873669494e+01 2.466519332201172077e+01 -4.510313255383216102e+01 -7.208613624412403453e+01 -3.102556402914929023e+01 8.706847417439652403e+00 4.210402671077365966e+01 4.214481466974716994e+01 -1.208657284500113072e+01 -3.929040299816546877e+01 1.019752584968404996e+01 4.759823372667848673e+01 2.366295353013795477e+01 -1.918663028276468907e+01 -3.498551032631075941e+01 -1.072342787411099607e+01 2.537012944254595936e+01 1.644828783087865531e+01 -4.002586242166297836e+01 -6.078789359468249387e+01 -1.689127495753533736e+01 1.866378447555008080e+01 5.870350741885935086e+00 -1.932693483519076239e+01 -3.671348601267011702e+01 -3.217034558065608252e+01 3.282448547850841614e+00 2.460060057240869469e+01 -1.207852009481542588e+01 -3.930192938729552310e+01 2.142386446330080574e+00 4.646295510738598011e+01 4.546866560786553180e+01 1.793539781615126927e+01 -1.983931761407046324e+01 -3.873373091511827937e+01 -2.262751543028975476e+01 -3.010638984111531613e+01 -6.969143321102865229e+01 -8.981179339322306987e+01 -7.818060777442326525e+01 -6.736224180835625930e+01 -6.695218861493987106e+01 -8.624298877251224837e+01 -1.395807151821567516e+02 -1.738388094230691649e+02 -1.492910911092956781e+02 -1.124243733128727314e+02 -1.681438865038827046e+01 3.935328797513689096e+02 