-2.420000000000000000e+02
-1.790000000000000000e+02
-3.040000000000000000e+02
-9.500000000000000000e+01
-2.300000000000000000e+01
-1.070000000000000000e+02
-7.400000000000000000e+01
-2.800000000000000000e+01
-3.500000000000000000e+01
-1.400000000000000000e+01
2.000000000000000000e+00
-1.400000000000000000e+01
2.000000000000000000e+00
4.300000000000000000e+01
5.200000000000000000e+01
8.100000000000000000e+01
1.340000000000000000e+02
1.670000000000000000e+02
2.030000000000000000e+02
2.580000000000000000e+02
3.210000000000000000e+02
3.880000000000000000e+02
4.550000000000000000e+02
5.050000000000000000e+02
5.270000000000000000e+02
5.290000000000000000e+02
5.170000000000000000e+02
4.640000000000000000e+02
3.690000000000000000e+02
2.320000000000000000e+02
7.600000000000000000e+01
-5.700000000000000000e+01
-1.600000000000000000e+02
-2.220000000000000000e+02
-2.560000000000000000e+02
-2.780000000000000000e+02
-3.040000000000000000e+02
-3.180000000000000000e+02
-3.040000000000000000e+02
-2.820000000000000000e+02
-2.800000000000000000e+02
-2.750000000000000000e+02
-2.630000000000000000e+02
-2.540000000000000000e+02
-2.580000000000000000e+02
-2.780000000000000000e+02
-2.700000000000000000e+02
-2.370000000000000000e+02
-2.270000000000000000e+02
-2.300000000000000000e+02
-2.100000000000000000e+02
-1.890000000000000000e+02
-1.910000000000000000e+02
-2.010000000000000000e+02
-1.960000000000000000e+02
-2.030000000000000000e+02
-2.180000000000000000e+02
-2.060000000000000000e+02
-1.940000000000000000e+02
-1.940000000000000000e+02
-1.940000000000000000e+02
-1.960000000000000000e+02
-1.960000000000000000e+02
-1.960000000000000000e+02
-1.940000000000000000e+02
-1.820000000000000000e+02
-1.770000000000000000e+02
-1.820000000000000000e+02
-1.910000000000000000e+02
-1.980000000000000000e+02
-1.820000000000000000e+02
-1.620000000000000000e+02
-1.670000000000000000e+02
-1.820000000000000000e+02
-1.720000000000000000e+02
-1.480000000000000000e+02
-1.460000000000000000e+02
-1.460000000000000000e+02
-1.340000000000000000e+02
-1.390000000000000000e+02
-1.430000000000000000e+02
-1.220000000000000000e+02
-9.100000000000000000e+01
-9.500000000000000000e+01
-1.120000000000000000e+02
-9.800000000000000000e+01
-8.300000000000000000e+01
-9.800000000000000000e+01
-1.170000000000000000e+02
-1.240000000000000000e+02
-1.170000000000000000e+02
-1.070000000000000000e+02
-1.000000000000000000e+02
-9.500000000000000000e+01
-8.800000000000000000e+01
-8.300000000000000000e+01
-7.900000000000000000e+01
-6.900000000000000000e+01
-2.100000000000000000e+01
1.550000000000000000e+02
6.590000000000000000e+02
1.490000000000000000e+03
1.859000000000000000e+03
7.900000000000000000e+02
-7.710000000000000000e+02
-8.960000000000000000e+02
-2.220000000000000000e+02
-2.220000000000000000e+02
-3.330000000000000000e+02
-1.190000000000000000e+02
-9.500000000000000000e+01
-1.720000000000000000e+02
-1.000000000000000000e+02
-5.500000000000000000e+01
-7.400000000000000000e+01
-5.700000000000000000e+01
-3.300000000000000000e+01
-1.600000000000000000e+01
1.400000000000000000e+01
4.700000000000000000e+01
5.500000000000000000e+01
6.200000000000000000e+01
1.150000000000000000e+02
1.670000000000000000e+02
2.080000000000000000e+02
2.660000000000000000e+02
3.280000000000000000e+02
3.950000000000000000e+02
4.620000000000000000e+02
5.050000000000000000e+02
5.240000000000000000e+02
5.360000000000000000e+02
5.050000000000000000e+02
4.240000000000000000e+02
3.210000000000000000e+02
1.890000000000000000e+02
3.100000000000000000e+01
-9.500000000000000000e+01
-1.890000000000000000e+02
-2.630000000000000000e+02
-2.970000000000000000e+02
-2.990000000000000000e+02
-3.040000000000000000e+02
-3.040000000000000000e+02
-3.010000000000000000e+02
-2.890000000000000000e+02
-2.820000000000000000e+02
-2.820000000000000000e+02
-2.680000000000000000e+02
-2.490000000000000000e+02
-2.390000000000000000e+02
-2.370000000000000000e+02
-2.270000000000000000e+02
-2.080000000000000000e+02
-2.060000000000000000e+02
-2.180000000000000000e+02
-2.100000000000000000e+02
-2.030000000000000000e+02
-2.080000000000000000e+02
-2.100000000000000000e+02
-2.080000000000000000e+02
-2.030000000000000000e+02
-2.080000000000000000e+02
-2.220000000000000000e+02
-2.250000000000000000e+02
-2.220000000000000000e+02
-2.200000000000000000e+02
-2.180000000000000000e+02
-2.080000000000000000e+02
-2.100000000000000000e+02
-2.220000000000000000e+02
-2.100000000000000000e+02
-1.910000000000000000e+02
-1.910000000000000000e+02
-1.960000000000000000e+02
-2.060000000000000000e+02
-2.130000000000000000e+02
-2.030000000000000000e+02
-2.010000000000000000e+02
-1.960000000000000000e+02
-1.860000000000000000e+02
-1.860000000000000000e+02
-1.820000000000000000e+02
-1.740000000000000000e+02
-1.600000000000000000e+02
-1.500000000000000000e+02
-1.360000000000000000e+02
-1.000000000000000000e+02
-7.600000000000000000e+01
-8.600000000000000000e+01
-9.100000000000000000e+01
-8.300000000000000000e+01
-8.600000000000000000e+01
-1.070000000000000000e+02
-1.190000000000000000e+02
-1.100000000000000000e+02
-1.170000000000000000e+02
-1.290000000000000000e+02
-1.270000000000000000e+02
-1.190000000000000000e+02
-1.120000000000000000e+02
-1.070000000000000000e+02
-9.800000000000000000e+01
-7.400000000000000000e+01
-1.100000000000000000e+01
2.340000000000000000e+02
8.600000000000000000e+02
1.658000000000000000e+03
1.660000000000000000e+03
2.700000000000000000e+02
-9.920000000000000000e+02
-6.950000000000000000e+02
-1.500000000000000000e+02
-2.820000000000000000e+02
-2.610000000000000000e+02
-4.500000000000000000e+01
-7.600000000000000000e+01
-1.220000000000000000e+02
-3.800000000000000000e+01
-1.400000000000000000e+01
-3.300000000000000000e+01
-4.000000000000000000e+00
2.100000000000000000e+01
2.800000000000000000e+01
3.300000000000000000e+01
3.500000000000000000e+01
6.200000000000000000e+01
9.500000000000000000e+01
1.170000000000000000e+02
1.500000000000000000e+02
2.060000000000000000e+02
2.730000000000000000e+02
3.330000000000000000e+02
3.930000000000000000e+02
4.550000000000000000e+02
4.860000000000000000e+02
4.910000000000000000e+02
4.880000000000000000e+02
4.620000000000000000e+02
4.000000000000000000e+02
2.850000000000000000e+02
1.270000000000000000e+02
-2.800000000000000000e+01
-1.410000000000000000e+02
-2.180000000000000000e+02
-2.800000000000000000e+02
-3.110000000000000000e+02
-3.160000000000000000e+02
-3.300000000000000000e+02
-3.350000000000000000e+02
-3.180000000000000000e+02
-3.060000000000000000e+02
-3.090000000000000000e+02
-3.090000000000000000e+02
-2.850000000000000000e+02
-2.540000000000000000e+02
-2.420000000000000000e+02
-2.370000000000000000e+02
-2.370000000000000000e+02
-2.270000000000000000e+02
-2.180000000000000000e+02
-2.180000000000000000e+02
-1.980000000000000000e+02
-1.720000000000000000e+02
-1.700000000000000000e+02
-1.770000000000000000e+02
-1.890000000000000000e+02
-2.010000000000000000e+02
-1.910000000000000000e+02
-1.820000000000000000e+02
-1.840000000000000000e+02
-1.910000000000000000e+02
-2.060000000000000000e+02
-2.150000000000000000e+02
-2.080000000000000000e+02
-1.910000000000000000e+02
-1.840000000000000000e+02
-1.860000000000000000e+02
-1.890000000000000000e+02
-1.960000000000000000e+02
-1.980000000000000000e+02
-1.820000000000000000e+02
-1.700000000000000000e+02
-1.720000000000000000e+02
-1.620000000000000000e+02
-1.460000000000000000e+02
-1.340000000000000000e+02
-1.340000000000000000e+02
-1.480000000000000000e+02
-1.600000000000000000e+02
-1.390000000000000000e+02
-1.120000000000000000e+02
-1.100000000000000000e+02
-9.300000000000000000e+01
-8.100000000000000000e+01
-1.270000000000000000e+02
-1.500000000000000000e+02
-1.120000000000000000e+02
-9.500000000000000000e+01
-1.190000000000000000e+02
-1.430000000000000000e+02
-1.390000000000000000e+02
-1.290000000000000000e+02
-1.390000000000000000e+02
-1.360000000000000000e+02
-1.190000000000000000e+02
-1.150000000000000000e+02
-1.340000000000000000e+02
-1.360000000000000000e+02
-1.000000000000000000e+02
-3.500000000000000000e+01
1.910000000000000000e+02
8.140000000000000000e+02
1.610000000000000000e+03
1.588000000000000000e+03
1.860000000000000000e+02
-1.032000000000000000e+03
-6.900000000000000000e+02
-1.700000000000000000e+02
-3.300000000000000000e+02
-2.820000000000000000e+02
-5.000000000000000000e+01
-8.300000000000000000e+01
-1.310000000000000000e+02
-6.400000000000000000e+01
-6.400000000000000000e+01
-7.900000000000000000e+01
-2.800000000000000000e+01
-2.000000000000000000e+00
-9.000000000000000000e+00
1.400000000000000000e+01
4.500000000000000000e+01
6.700000000000000000e+01
1.030000000000000000e+02
1.410000000000000000e+02
1.840000000000000000e+02
2.320000000000000000e+02
2.870000000000000000e+02
3.520000000000000000e+02
4.140000000000000000e+02
4.760000000000000000e+02
5.220000000000000000e+02
5.290000000000000000e+02
5.100000000000000000e+02
4.760000000000000000e+02
4.120000000000000000e+02
2.940000000000000000e+02
1.480000000000000000e+02
1.100000000000000000e+01
-1.050000000000000000e+02
-1.910000000000000000e+02
-2.320000000000000000e+02
-2.630000000000000000e+02
-2.890000000000000000e+02
-2.970000000000000000e+02
-2.940000000000000000e+02
-2.940000000000000000e+02
-2.970000000000000000e+02
-2.890000000000000000e+02
-2.730000000000000000e+02
-2.610000000000000000e+02
-2.560000000000000000e+02
-2.510000000000000000e+02
-2.320000000000000000e+02
-2.060000000000000000e+02
-1.960000000000000000e+02
-1.890000000000000000e+02
-1.790000000000000000e+02
-1.940000000000000000e+02
-2.200000000000000000e+02
-2.320000000000000000e+02
-2.250000000000000000e+02
-2.250000000000000000e+02
-2.540000000000000000e+02
-2.630000000000000000e+02
-2.420000000000000000e+02
-2.370000000000000000e+02
-2.460000000000000000e+02
-2.440000000000000000e+02
-2.320000000000000000e+02
-2.320000000000000000e+02
-2.320000000000000000e+02
-2.150000000000000000e+02
-2.080000000000000000e+02
-2.130000000000000000e+02
-2.100000000000000000e+02
-1.980000000000000000e+02
-1.890000000000000000e+02
-1.860000000000000000e+02
-1.860000000000000000e+02
-1.820000000000000000e+02
-1.820000000000000000e+02
-1.700000000000000000e+02
-1.390000000000000000e+02
-1.120000000000000000e+02
-1.030000000000000000e+02
-1.030000000000000000e+02
-1.120000000000000000e+02
-1.150000000000000000e+02
-1.220000000000000000e+02
-1.310000000000000000e+02
-1.310000000000000000e+02
-1.170000000000000000e+02
-1.100000000000000000e+02
-1.170000000000000000e+02
-1.100000000000000000e+02
-9.300000000000000000e+01
-8.800000000000000000e+01
-8.600000000000000000e+01
-7.600000000000000000e+01
-2.000000000000000000e+00
2.460000000000000000e+02
8.430000000000000000e+02
1.646000000000000000e+03
1.636000000000000000e+03
1.890000000000000000e+02
-1.023000000000000000e+03
-6.370000000000000000e+02
-1.360000000000000000e+02
-3.090000000000000000e+02
-2.610000000000000000e+02
-4.700000000000000000e+01
-8.100000000000000000e+01
-1.070000000000000000e+02
-2.600000000000000000e+01
-7.000000000000000000e+00
-2.100000000000000000e+01
4.000000000000000000e+00
2.600000000000000000e+01
3.500000000000000000e+01
5.900000000000000000e+01
8.800000000000000000e+01
1.100000000000000000e+02
1.430000000000000000e+02
1.860000000000000000e+02
2.300000000000000000e+02
2.780000000000000000e+02
3.420000000000000000e+02
4.000000000000000000e+02
4.310000000000000000e+02
4.740000000000000000e+02
5.240000000000000000e+02
5.410000000000000000e+02
5.220000000000000000e+02
4.810000000000000000e+02
3.970000000000000000e+02
2.660000000000000000e+02
1.000000000000000000e+02
-4.500000000000000000e+01
-1.460000000000000000e+02
-2.220000000000000000e+02
-2.890000000000000000e+02
-3.250000000000000000e+02
-3.300000000000000000e+02
-3.280000000000000000e+02
-3.400000000000000000e+02
-3.450000000000000000e+02
-3.330000000000000000e+02
-3.210000000000000000e+02
-3.110000000000000000e+02
-2.970000000000000000e+02
-2.800000000000000000e+02
-2.700000000000000000e+02
-2.660000000000000000e+02
-2.440000000000000000e+02
-2.220000000000000000e+02
-2.130000000000000000e+02
-2.060000000000000000e+02
-1.910000000000000000e+02
-1.820000000000000000e+02
-1.820000000000000000e+02
-1.740000000000000000e+02
-1.600000000000000000e+02
-1.550000000000000000e+02
-1.550000000000000000e+02
-1.580000000000000000e+02
-1.600000000000000000e+02
-1.650000000000000000e+02
-1.770000000000000000e+02
-1.840000000000000000e+02
-1.860000000000000000e+02
-1.960000000000000000e+02
-1.980000000000000000e+02
-1.980000000000000000e+02
-1.980000000000000000e+02
-2.060000000000000000e+02
-2.100000000000000000e+02
-2.030000000000000000e+02
-1.910000000000000000e+02
-1.770000000000000000e+02
-1.550000000000000000e+02
-1.390000000000000000e+02
-1.340000000000000000e+02
-1.430000000000000000e+02
-1.600000000000000000e+02
-1.620000000000000000e+02
-1.650000000000000000e+02
-1.650000000000000000e+02
-1.600000000000000000e+02
-1.620000000000000000e+02
-1.580000000000000000e+02
-1.500000000000000000e+02
-1.500000000000000000e+02
-1.430000000000000000e+02
-1.500000000000000000e+02
-1.700000000000000000e+02
-1.340000000000000000e+02
1.900000000000000000e+01
4.570000000000000000e+02
1.279000000000000000e+03
1.799000000000000000e+03
8.840000000000000000e+02
-7.260000000000000000e+02
-9.820000000000000000e+02
-3.180000000000000000e+02
-2.820000000000000000e+02
-4.240000000000000000e+02
-2.320000000000000000e+02
-1.650000000000000000e+02
-2.220000000000000000e+02
-1.720000000000000000e+02
-1.240000000000000000e+02
-1.410000000000000000e+02
-1.240000000000000000e+02
-8.800000000000000000e+01
-7.400000000000000000e+01
-4.500000000000000000e+01
-4.000000000000000000e+00
1.900000000000000000e+01
4.300000000000000000e+01
8.100000000000000000e+01
1.290000000000000000e+02
1.790000000000000000e+02
2.340000000000000000e+02
2.970000000000000000e+02
3.640000000000000000e+02
4.240000000000000000e+02
4.760000000000000000e+02
5.150000000000000000e+02
5.270000000000000000e+02
4.930000000000000000e+02
4.140000000000000000e+02
2.990000000000000000e+02
1.500000000000000000e+02
-2.000000000000000000e+00
-1.220000000000000000e+02
-2.080000000000000000e+02
-2.730000000000000000e+02
-3.160000000000000000e+02
-3.280000000000000000e+02
-3.160000000000000000e+02
-3.040000000000000000e+02
-3.010000000000000000e+02
-2.940000000000000000e+02
-2.850000000000000000e+02
-2.800000000000000000e+02
-2.730000000000000000e+02
-2.510000000000000000e+02
-2.370000000000000000e+02
-2.390000000000000000e+02
-2.300000000000000000e+02
-2.150000000000000000e+02
-2.060000000000000000e+02
-1.940000000000000000e+02
-1.910000000000000000e+02
-1.980000000000000000e+02
-1.940000000000000000e+02
-1.840000000000000000e+02
-1.720000000000000000e+02
-1.620000000000000000e+02
-1.770000000000000000e+02
-2.080000000000000000e+02
-2.150000000000000000e+02
-1.980000000000000000e+02
-1.960000000000000000e+02
-1.890000000000000000e+02
-1.770000000000000000e+02
-1.740000000000000000e+02
-1.720000000000000000e+02
-1.740000000000000000e+02
-1.860000000000000000e+02
-1.960000000000000000e+02
-1.980000000000000000e+02
-2.030000000000000000e+02
-2.100000000000000000e+02
-2.010000000000000000e+02
-1.790000000000000000e+02
-1.620000000000000000e+02
-1.580000000000000000e+02
-1.550000000000000000e+02
-1.700000000000000000e+02
-1.960000000000000000e+02
-2.270000000000000000e+02
-2.340000000000000000e+02
-2.300000000000000000e+02
-2.320000000000000000e+02
-2.220000000000000000e+02
-2.080000000000000000e+02
-2.010000000000000000e+02
-1.890000000000000000e+02
-1.740000000000000000e+02
-1.720000000000000000e+02
-1.600000000000000000e+02
-5.900000000000000000e+01
3.090000000000000000e+02
1.085000000000000000e+03
1.797000000000000000e+03
1.313000000000000000e+03
-3.230000000000000000e+02
-1.114000000000000000e+03
-5.120000000000000000e+02
-2.130000000000000000e+02
-4.190000000000000000e+02
-2.870000000000000000e+02
-1.240000000000000000e+02
-1.940000000000000000e+02
-1.910000000000000000e+02
-1.070000000000000000e+02
-1.050000000000000000e+02
-1.120000000000000000e+02
-7.100000000000000000e+01
-4.500000000000000000e+01
-3.100000000000000000e+01
0.000000000000000000e+00
2.100000000000000000e+01
4.500000000000000000e+01
8.100000000000000000e+01
1.270000000000000000e+02
1.820000000000000000e+02
2.440000000000000000e+02
3.060000000000000000e+02
3.590000000000000000e+02
4.210000000000000000e+02
4.810000000000000000e+02
5.080000000000000000e+02
5.170000000000000000e+02
4.980000000000000000e+02
4.140000000000000000e+02
3.010000000000000000e+02
1.740000000000000000e+02
2.800000000000000000e+01
-1.030000000000000000e+02
-2.060000000000000000e+02
-2.800000000000000000e+02
-3.280000000000000000e+02
-3.450000000000000000e+02
-3.370000000000000000e+02
-3.300000000000000000e+02
-3.300000000000000000e+02
-3.350000000000000000e+02
-3.250000000000000000e+02
-3.010000000000000000e+02
-2.870000000000000000e+02
-2.780000000000000000e+02
-2.610000000000000000e+02
-2.460000000000000000e+02
-2.220000000000000000e+02
-1.980000000000000000e+02
-1.910000000000000000e+02
-1.790000000000000000e+02
-1.700000000000000000e+02
-1.700000000000000000e+02
-1.740000000000000000e+02
-1.620000000000000000e+02
-1.410000000000000000e+02
-1.410000000000000000e+02
-1.480000000000000000e+02
-1.480000000000000000e+02
-1.460000000000000000e+02
-1.340000000000000000e+02
-1.410000000000000000e+02
-1.530000000000000000e+02
-1.390000000000000000e+02
-1.430000000000000000e+02
-1.550000000000000000e+02
-1.310000000000000000e+02
-1.220000000000000000e+02
-1.530000000000000000e+02
-1.580000000000000000e+02
-1.310000000000000000e+02
-1.290000000000000000e+02
-1.270000000000000000e+02
-9.300000000000000000e+01
-8.100000000000000000e+01
-8.600000000000000000e+01
-9.300000000000000000e+01
-1.000000000000000000e+02
-1.030000000000000000e+02
-1.150000000000000000e+02
-1.290000000000000000e+02
-1.220000000000000000e+02
-1.290000000000000000e+02
-1.460000000000000000e+02
-1.430000000000000000e+02
-1.410000000000000000e+02
-1.310000000000000000e+02
-1.360000000000000000e+02
-1.410000000000000000e+02
-8.100000000000000000e+01
1.070000000000000000e+02
6.150000000000000000e+02
1.423000000000000000e+03
1.694000000000000000e+03
5.510000000000000000e+02
-9.510000000000000000e+02
-1.006000000000000000e+03
-3.350000000000000000e+02
-3.060000000000000000e+02
-3.690000000000000000e+02
-1.550000000000000000e+02
-1.170000000000000000e+02
-1.670000000000000000e+02
-1.100000000000000000e+02
-7.100000000000000000e+01
-8.600000000000000000e+01
-6.900000000000000000e+01
-3.500000000000000000e+01
-2.800000000000000000e+01
-9.000000000000000000e+00
2.600000000000000000e+01
4.300000000000000000e+01
7.100000000000000000e+01
1.150000000000000000e+02
1.530000000000000000e+02
1.890000000000000000e+02
2.420000000000000000e+02
3.210000000000000000e+02
3.810000000000000000e+02
4.170000000000000000e+02
4.570000000000000000e+02
4.860000000000000000e+02
4.860000000000000000e+02
4.430000000000000000e+02
3.660000000000000000e+02
2.680000000000000000e+02
1.290000000000000000e+02
-2.600000000000000000e+01
-1.310000000000000000e+02
-1.960000000000000000e+02
-2.490000000000000000e+02
-2.890000000000000000e+02
-3.060000000000000000e+02
-3.040000000000000000e+02
-3.090000000000000000e+02
-3.090000000000000000e+02
-2.890000000000000000e+02
-2.750000000000000000e+02
-2.750000000000000000e+02
-2.700000000000000000e+02
-2.560000000000000000e+02
-2.460000000000000000e+02
-2.420000000000000000e+02
-2.150000000000000000e+02
-1.980000000000000000e+02
-1.960000000000000000e+02
-1.890000000000000000e+02
-1.790000000000000000e+02
-1.650000000000000000e+02
-1.550000000000000000e+02
-1.550000000000000000e+02
-1.410000000000000000e+02
-1.310000000000000000e+02
-1.360000000000000000e+02
-1.460000000000000000e+02
-1.430000000000000000e+02
-1.240000000000000000e+02
-1.270000000000000000e+02
-1.530000000000000000e+02
-1.580000000000000000e+02
-1.480000000000000000e+02
-1.500000000000000000e+02
-1.580000000000000000e+02
-1.670000000000000000e+02
-1.740000000000000000e+02
-1.820000000000000000e+02
-1.770000000000000000e+02
-1.480000000000000000e+02
-1.290000000000000000e+02
-1.240000000000000000e+02
-1.240000000000000000e+02
-1.340000000000000000e+02
-1.390000000000000000e+02
-1.480000000000000000e+02
-1.670000000000000000e+02
-1.650000000000000000e+02
-1.480000000000000000e+02
-1.480000000000000000e+02
-1.580000000000000000e+02
-1.550000000000000000e+02
-1.430000000000000000e+02
-1.410000000000000000e+02
-1.340000000000000000e+02
-1.190000000000000000e+02
-9.300000000000000000e+01
3.800000000000000000e+01
4.500000000000000000e+02
1.198000000000000000e+03
1.660000000000000000e+03
8.170000000000000000e+02
-7.180000000000000000e+02
-1.044000000000000000e+03
-4.070000000000000000e+02
-2.940000000000000000e+02
-4.070000000000000000e+02
-2.130000000000000000e+02
-1.530000000000000000e+02
-2.490000000000000000e+02
-2.030000000000000000e+02
-1.410000000000000000e+02
-1.600000000000000000e+02
-1.580000000000000000e+02
-1.220000000000000000e+02
-9.300000000000000000e+01
-7.100000000000000000e+01
-5.000000000000000000e+01
-2.300000000000000000e+01
9.000000000000000000e+00
4.500000000000000000e+01
8.300000000000000000e+01
1.310000000000000000e+02
1.980000000000000000e+02
2.580000000000000000e+02
3.130000000000000000e+02
3.690000000000000000e+02
4.140000000000000000e+02
4.400000000000000000e+02
4.330000000000000000e+02
4.120000000000000000e+02
3.590000000000000000e+02
2.490000000000000000e+02
1.150000000000000000e+02
-2.000000000000000000e+00
-1.190000000000000000e+02
-2.250000000000000000e+02
-2.890000000000000000e+02
-3.110000000000000000e+02
-3.280000000000000000e+02
-3.490000000000000000e+02
-3.450000000000000000e+02
-3.230000000000000000e+02
-3.130000000000000000e+02
-3.110000000000000000e+02
-3.010000000000000000e+02
-2.780000000000000000e+02
-2.580000000000000000e+02
-2.510000000000000000e+02
-2.340000000000000000e+02
-2.180000000000000000e+02
-2.080000000000000000e+02
-1.910000000000000000e+02
-1.740000000000000000e+02
-1.550000000000000000e+02
-1.500000000000000000e+02
-1.580000000000000000e+02
-1.550000000000000000e+02
-1.390000000000000000e+02
-1.240000000000000000e+02
-1.290000000000000000e+02
-1.340000000000000000e+02
-1.240000000000000000e+02
-1.190000000000000000e+02
-1.120000000000000000e+02
-1.050000000000000000e+02
-1.030000000000000000e+02
-1.100000000000000000e+02
-1.100000000000000000e+02
-9.300000000000000000e+01
-6.700000000000000000e+01
-5.700000000000000000e+01
-5.500000000000000000e+01
-4.700000000000000000e+01
-5.200000000000000000e+01
-7.600000000000000000e+01
-1.030000000000000000e+02
-1.100000000000000000e+02
-1.100000000000000000e+02
-1.150000000000000000e+02
-1.150000000000000000e+02
-1.120000000000000000e+02
-1.150000000000000000e+02
-1.190000000000000000e+02
-1.120000000000000000e+02
-9.500000000000000000e+01
-9.800000000000000000e+01
-1.150000000000000000e+02
-7.100000000000000000e+01
1.170000000000000000e+02
6.130000000000000000e+02
1.406000000000000000e+03
1.634000000000000000e+03
3.930000000000000000e+02
-9.770000000000000000e+02
-7.860000000000000000e+02
-2.180000000000000000e+02
-3.540000000000000000e+02
-3.610000000000000000e+02
-1.220000000000000000e+02
-1.240000000000000000e+02
-1.980000000000000000e+02
-1.550000000000000000e+02
-1.310000000000000000e+02
-1.580000000000000000e+02
-1.390000000000000000e+02
-9.100000000000000000e+01
-7.900000000000000000e+01
-6.900000000000000000e+01
-3.800000000000000000e+01
-1.400000000000000000e+01
1.600000000000000000e+01
5.900000000000000000e+01
1.070000000000000000e+02
1.580000000000000000e+02
2.180000000000000000e+02
2.870000000000000000e+02
3.470000000000000000e+02
3.900000000000000000e+02
4.260000000000000000e+02
4.430000000000000000e+02
4.260000000000000000e+02
3.780000000000000000e+02
2.990000000000000000e+02
1.980000000000000000e+02
6.400000000000000000e+01
-7.100000000000000000e+01
-1.700000000000000000e+02
-2.370000000000000000e+02
-2.750000000000000000e+02
-2.890000000000000000e+02
-2.970000000000000000e+02
-2.920000000000000000e+02
-2.890000000000000000e+02
-2.920000000000000000e+02
-2.870000000000000000e+02
-2.850000000000000000e+02
-2.800000000000000000e+02
-2.630000000000000000e+02
-2.420000000000000000e+02
-2.220000000000000000e+02
-2.130000000000000000e+02
-2.060000000000000000e+02
-1.910000000000000000e+02
-1.700000000000000000e+02
-1.580000000000000000e+02
-1.600000000000000000e+02
-1.500000000000000000e+02
-1.340000000000000000e+02
-1.310000000000000000e+02
-1.270000000000000000e+02
-1.220000000000000000e+02
-1.290000000000000000e+02
-1.310000000000000000e+02
-1.190000000000000000e+02
-1.030000000000000000e+02
-9.500000000000000000e+01
-1.000000000000000000e+02
-1.000000000000000000e+02
-9.500000000000000000e+01
-8.300000000000000000e+01
-7.100000000000000000e+01
-7.400000000000000000e+01
-8.100000000000000000e+01
-9.800000000000000000e+01
-1.220000000000000000e+02
-1.340000000000000000e+02
-1.580000000000000000e+02
-1.860000000000000000e+02
-1.820000000000000000e+02
-1.720000000000000000e+02
-1.670000000000000000e+02
-1.740000000000000000e+02
-1.770000000000000000e+02
-1.650000000000000000e+02
-1.550000000000000000e+02
-1.240000000000000000e+02
-9.000000000000000000e+00
3.590000000000000000e+02
1.126000000000000000e+03
1.711000000000000000e+03
9.510000000000000000e+02
-6.350000000000000000e+02
-9.850000000000000000e+02
-3.400000000000000000e+02
-2.940000000000000000e+02
-4.310000000000000000e+02
-1.910000000000000000e+02
-9.500000000000000000e+01
-1.720000000000000000e+02
-1.170000000000000000e+02
-5.500000000000000000e+01
-7.100000000000000000e+01
-6.400000000000000000e+01
-3.300000000000000000e+01
-3.300000000000000000e+01
-3.100000000000000000e+01
-7.000000000000000000e+00
1.600000000000000000e+01
3.800000000000000000e+01
6.200000000000000000e+01
8.800000000000000000e+01
1.410000000000000000e+02
2.100000000000000000e+02
2.780000000000000000e+02
3.280000000000000000e+02
3.730000000000000000e+02
4.190000000000000000e+02
4.430000000000000000e+02
4.430000000000000000e+02
4.260000000000000000e+02
3.540000000000000000e+02
2.150000000000000000e+02
7.100000000000000000e+01
-4.300000000000000000e+01
-1.460000000000000000e+02
-2.420000000000000000e+02
-2.920000000000000000e+02
-2.990000000000000000e+02
-3.130000000000000000e+02
-3.300000000000000000e+02
-3.210000000000000000e+02
-3.040000000000000000e+02
-2.970000000000000000e+02
-2.970000000000000000e+02
-2.780000000000000000e+02
-2.540000000000000000e+02
-2.490000000000000000e+02
-2.370000000000000000e+02
-2.130000000000000000e+02
-2.030000000000000000e+02
-1.940000000000000000e+02
-1.890000000000000000e+02
-1.890000000000000000e+02
-1.860000000000000000e+02
-1.980000000000000000e+02
-2.100000000000000000e+02
-1.890000000000000000e+02
-1.650000000000000000e+02
-1.720000000000000000e+02
-1.740000000000000000e+02
-1.530000000000000000e+02
-1.480000000000000000e+02
-1.600000000000000000e+02
-1.430000000000000000e+02
-1.240000000000000000e+02
-1.000000000000000000e+02
-8.100000000000000000e+01
-9.800000000000000000e+01
-1.120000000000000000e+02
-1.120000000000000000e+02
-1.290000000000000000e+02
-1.290000000000000000e+02
-1.150000000000000000e+02
-1.190000000000000000e+02
-1.190000000000000000e+02
-9.500000000000000000e+01
-8.800000000000000000e+01
-1.070000000000000000e+02
-9.800000000000000000e+01
-7.400000000000000000e+01
-5.900000000000000000e+01
2.000000000000000000e+00
2.340000000000000000e+02
8.070000000000000000e+02
1.550000000000000000e+03
1.476000000000000000e+03
8.100000000000000000e+01
-9.850000000000000000e+02
-5.770000000000000000e+02
-1.600000000000000000e+02
-3.690000000000000000e+02
-3.060000000000000000e+02
-7.600000000000000000e+01
-1.000000000000000000e+02
-1.120000000000000000e+02
-3.500000000000000000e+01
-3.800000000000000000e+01
-4.500000000000000000e+01
-4.000000000000000000e+00
1.400000000000000000e+01
2.100000000000000000e+01
4.300000000000000000e+01
6.700000000000000000e+01
9.100000000000000000e+01
1.270000000000000000e+02
1.720000000000000000e+02
2.130000000000000000e+02
2.580000000000000000e+02
3.180000000000000000e+02
3.760000000000000000e+02
4.260000000000000000e+02
4.670000000000000000e+02
4.810000000000000000e+02
4.740000000000000000e+02
4.450000000000000000e+02
3.810000000000000000e+02
2.630000000000000000e+02
1.070000000000000000e+02
-4.700000000000000000e+01
-1.740000000000000000e+02
-2.630000000000000000e+02
-3.210000000000000000e+02
-3.570000000000000000e+02
-3.810000000000000000e+02
-4.070000000000000000e+02
-4.120000000000000000e+02
-3.850000000000000000e+02
-3.660000000000000000e+02
-3.710000000000000000e+02
-3.660000000000000000e+02
-3.350000000000000000e+02
-3.060000000000000000e+02
-3.110000000000000000e+02
-3.060000000000000000e+02
-2.780000000000000000e+02
-2.540000000000000000e+02
-2.420000000000000000e+02
-2.220000000000000000e+02
-2.010000000000000000e+02
-2.010000000000000000e+02
-1.960000000000000000e+02
-1.770000000000000000e+02
-1.670000000000000000e+02
-1.600000000000000000e+02
-1.500000000000000000e+02
-1.500000000000000000e+02
-1.480000000000000000e+02
-1.460000000000000000e+02
-1.390000000000000000e+02
-1.120000000000000000e+02
-1.170000000000000000e+02
-1.410000000000000000e+02
-1.430000000000000000e+02
-1.430000000000000000e+02
-1.530000000000000000e+02
-1.480000000000000000e+02
-1.410000000000000000e+02
-1.480000000000000000e+02
-1.430000000000000000e+02
-1.220000000000000000e+02
-1.190000000000000000e+02
-1.220000000000000000e+02
-1.100000000000000000e+02
-9.800000000000000000e+01
-5.000000000000000000e+01
1.150000000000000000e+02
5.790000000000000000e+02
1.366000000000000000e+03
1.648000000000000000e+03
5.480000000000000000e+02
-8.050000000000000000e+02
-7.640000000000000000e+02
-2.080000000000000000e+02
-2.730000000000000000e+02
-3.230000000000000000e+02
-1.120000000000000000e+02
-7.100000000000000000e+01
-1.050000000000000000e+02
-5.900000000000000000e+01
-4.000000000000000000e+01
-4.500000000000000000e+01
-3.300000000000000000e+01
-3.500000000000000000e+01
-4.700000000000000000e+01
-3.300000000000000000e+01
2.000000000000000000e+00
2.100000000000000000e+01
3.800000000000000000e+01
8.300000000000000000e+01
1.310000000000000000e+02
1.790000000000000000e+02
2.370000000000000000e+02
3.090000000000000000e+02
3.730000000000000000e+02
4.090000000000000000e+02
4.260000000000000000e+02
4.430000000000000000e+02
4.430000000000000000e+02
3.930000000000000000e+02
2.820000000000000000e+02
1.410000000000000000e+02
9.000000000000000000e+00
-1.170000000000000000e+02
-2.250000000000000000e+02
-2.970000000000000000e+02
-3.450000000000000000e+02
-3.690000000000000000e+02
-3.810000000000000000e+02
-3.810000000000000000e+02
-3.760000000000000000e+02
-3.780000000000000000e+02
-3.780000000000000000e+02
-3.660000000000000000e+02
-3.520000000000000000e+02
-3.450000000000000000e+02
-3.350000000000000000e+02
-3.110000000000000000e+02
-3.010000000000000000e+02
-2.970000000000000000e+02
-2.750000000000000000e+02
-2.540000000000000000e+02
-2.460000000000000000e+02
-2.340000000000000000e+02
-2.250000000000000000e+02
-2.180000000000000000e+02
-2.100000000000000000e+02
-2.010000000000000000e+02
-1.890000000000000000e+02
-1.890000000000000000e+02
-1.940000000000000000e+02
-1.910000000000000000e+02
-1.820000000000000000e+02
-1.700000000000000000e+02
-1.650000000000000000e+02
-1.620000000000000000e+02
-1.530000000000000000e+02
-1.310000000000000000e+02
-1.070000000000000000e+02
-1.070000000000000000e+02
-1.170000000000000000e+02
-1.170000000000000000e+02
-1.390000000000000000e+02
-1.650000000000000000e+02
-1.670000000000000000e+02
-1.580000000000000000e+02
-1.480000000000000000e+02
-1.480000000000000000e+02
-1.530000000000000000e+02
-1.700000000000000000e+02
-1.860000000000000000e+02
-1.720000000000000000e+02
-1.500000000000000000e+02
-1.360000000000000000e+02
-3.800000000000000000e+01
3.760000000000000000e+02
1.239000000000000000e+03
1.902000000000000000e+03
1.289000000000000000e+03
-2.700000000000000000e+02
-9.370000000000000000e+02
-4.090000000000000000e+02
-1.960000000000000000e+02
-3.900000000000000000e+02
-2.580000000000000000e+02
-1.220000000000000000e+02
-2.010000000000000000e+02
-1.980000000000000000e+02
-1.220000000000000000e+02
-1.170000000000000000e+02
-1.170000000000000000e+02
-8.300000000000000000e+01
-6.400000000000000000e+01
-5.700000000000000000e+01
-2.800000000000000000e+01
0.000000000000000000e+00
9.000000000000000000e+00
2.800000000000000000e+01
6.700000000000000000e+01
1.150000000000000000e+02
1.650000000000000000e+02
2.200000000000000000e+02
2.850000000000000000e+02
3.470000000000000000e+02
3.900000000000000000e+02
4.190000000000000000e+02
4.210000000000000000e+02
4.050000000000000000e+02
3.470000000000000000e+02
2.340000000000000000e+02
9.100000000000000000e+01
-4.700000000000000000e+01
-1.600000000000000000e+02
-2.440000000000000000e+02
-2.990000000000000000e+02
-3.180000000000000000e+02
-3.330000000000000000e+02
-3.420000000000000000e+02
-3.300000000000000000e+02
-3.160000000000000000e+02
-3.090000000000000000e+02
-3.130000000000000000e+02
-3.160000000000000000e+02
-3.060000000000000000e+02
-3.010000000000000000e+02
-3.010000000000000000e+02
-2.870000000000000000e+02
-2.890000000000000000e+02
-3.010000000000000000e+02
-2.970000000000000000e+02
-2.780000000000000000e+02
-2.660000000000000000e+02
-2.610000000000000000e+02
-2.510000000000000000e+02
-2.460000000000000000e+02
-2.610000000000000000e+02
-2.730000000000000000e+02
-2.700000000000000000e+02
-2.560000000000000000e+02
-2.440000000000000000e+02
-2.490000000000000000e+02
-2.460000000000000000e+02
-2.320000000000000000e+02
-2.200000000000000000e+02
-2.150000000000000000e+02
-2.200000000000000000e+02
-2.100000000000000000e+02
-1.960000000000000000e+02
-1.910000000000000000e+02
-1.860000000000000000e+02
-1.740000000000000000e+02
-1.700000000000000000e+02
-1.700000000000000000e+02
-1.670000000000000000e+02
-1.550000000000000000e+02
-1.430000000000000000e+02
-1.190000000000000000e+02
-9.800000000000000000e+01
-1.030000000000000000e+02
-1.000000000000000000e+02
-9.500000000000000000e+01
-1.000000000000000000e+02
-1.070000000000000000e+02
-1.270000000000000000e+02
-1.580000000000000000e+02
-1.530000000000000000e+02
-1.360000000000000000e+02
-1.340000000000000000e+02
-1.360000000000000000e+02
-1.270000000000000000e+02
-1.190000000000000000e+02
-1.190000000000000000e+02
-1.150000000000000000e+02
-9.300000000000000000e+01
2.000000000000000000e+00
3.730000000000000000e+02
1.188000000000000000e+03
1.926000000000000000e+03
1.526000000000000000e+03
-1.100000000000000000e+01
-9.320000000000000000e+02
-4.690000000000000000e+02
-1.220000000000000000e+02
-3.330000000000000000e+02
-2.540000000000000000e+02
-7.100000000000000000e+01
-1.240000000000000000e+02
-1.430000000000000000e+02
-7.100000000000000000e+01
-6.400000000000000000e+01
-6.900000000000000000e+01
-4.700000000000000000e+01
-4.700000000000000000e+01
-4.500000000000000000e+01
-2.300000000000000000e+01
-4.000000000000000000e+00
1.900000000000000000e+01
5.500000000000000000e+01
9.500000000000000000e+01
1.310000000000000000e+02
1.670000000000000000e+02
2.130000000000000000e+02
2.610000000000000000e+02
3.230000000000000000e+02
3.830000000000000000e+02
4.140000000000000000e+02
4.260000000000000000e+02
4.170000000000000000e+02
3.760000000000000000e+02
2.990000000000000000e+02
1.720000000000000000e+02
1.600000000000000000e+01
-1.220000000000000000e+02
-2.270000000000000000e+02
-2.990000000000000000e+02
-3.520000000000000000e+02
-3.780000000000000000e+02
-3.810000000000000000e+02
-3.850000000000000000e+02
-3.830000000000000000e+02
-3.640000000000000000e+02
-3.470000000000000000e+02
-3.370000000000000000e+02
-3.350000000000000000e+02
-3.330000000000000000e+02
-3.280000000000000000e+02
-3.160000000000000000e+02
-3.040000000000000000e+02
-2.870000000000000000e+02
-2.780000000000000000e+02
-2.730000000000000000e+02
-2.630000000000000000e+02
-2.440000000000000000e+02
-2.320000000000000000e+02
-2.320000000000000000e+02
-2.270000000000000000e+02
-2.180000000000000000e+02
-2.180000000000000000e+02
-2.270000000000000000e+02
-2.300000000000000000e+02
-2.130000000000000000e+02
-2.100000000000000000e+02
-2.180000000000000000e+02
-2.080000000000000000e+02
-1.960000000000000000e+02
-1.890000000000000000e+02
-1.840000000000000000e+02
-1.790000000000000000e+02
-1.740000000000000000e+02
-1.720000000000000000e+02
-1.670000000000000000e+02
-1.530000000000000000e+02
-1.430000000000000000e+02
-1.410000000000000000e+02
-1.430000000000000000e+02
-1.410000000000000000e+02
-1.410000000000000000e+02
-1.460000000000000000e+02
-1.430000000000000000e+02
-1.340000000000000000e+02
-1.290000000000000000e+02
-1.240000000000000000e+02
-1.170000000000000000e+02
-1.100000000000000000e+02
-1.030000000000000000e+02
-1.050000000000000000e+02
-1.170000000000000000e+02
-1.340000000000000000e+02
-1.310000000000000000e+02
-1.190000000000000000e+02
-1.190000000000000000e+02
-1.120000000000000000e+02
-1.070000000000000000e+02
-1.100000000000000000e+02
-1.000000000000000000e+02
-9.100000000000000000e+01
-8.300000000000000000e+01
-8.300000000000000000e+01
-8.800000000000000000e+01
-8.600000000000000000e+01
-9.300000000000000000e+01
-1.000000000000000000e+02
-9.500000000000000000e+01
-8.100000000000000000e+01
-5.500000000000000000e+01
-3.300000000000000000e+01
-4.500000000000000000e+01
-6.400000000000000000e+01
-5.900000000000000000e+01
-5.700000000000000000e+01
-7.900000000000000000e+01
-9.800000000000000000e+01
-1.030000000000000000e+02
-1.030000000000000000e+02
-9.500000000000000000e+01
-9.100000000000000000e+01
-9.800000000000000000e+01
-9.800000000000000000e+01
-8.800000000000000000e+01
-8.100000000000000000e+01
-8.300000000000000000e+01
-9.500000000000000000e+01
-5.700000000000000000e+01
2.150000000000000000e+02
9.270000000000000000e+02
1.771000000000000000e+03
1.768000000000000000e+03
4.090000000000000000e+02
-9.130000000000000000e+02
-7.400000000000000000e+02
-2.010000000000000000e+02
-3.490000000000000000e+02
-3.950000000000000000e+02
-1.840000000000000000e+02
-1.910000000000000000e+02
-2.420000000000000000e+02
-1.670000000000000000e+02
-1.390000000000000000e+02
-1.460000000000000000e+02
-1.220000000000000000e+02
-1.100000000000000000e+02
-1.050000000000000000e+02
-7.400000000000000000e+01
-4.300000000000000000e+01
-2.300000000000000000e+01
2.000000000000000000e+00
4.500000000000000000e+01
8.300000000000000000e+01
1.270000000000000000e+02
1.910000000000000000e+02
2.610000000000000000e+02
3.230000000000000000e+02
3.660000000000000000e+02
3.880000000000000000e+02
4.070000000000000000e+02
4.140000000000000000e+02
3.950000000000000000e+02
3.420000000000000000e+02
2.490000000000000000e+02
1.190000000000000000e+02
-1.900000000000000000e+01
-1.290000000000000000e+02
-2.100000000000000000e+02
-2.800000000000000000e+02
-3.230000000000000000e+02
-3.330000000000000000e+02
-3.280000000000000000e+02
-3.280000000000000000e+02
-3.230000000000000000e+02
-3.040000000000000000e+02
-2.890000000000000000e+02
-2.820000000000000000e+02
-2.750000000000000000e+02
-2.680000000000000000e+02
-2.540000000000000000e+02
-2.440000000000000000e+02
-2.390000000000000000e+02
-2.200000000000000000e+02
-2.030000000000000000e+02
-1.960000000000000000e+02
-1.840000000000000000e+02
-1.770000000000000000e+02
-1.770000000000000000e+02
-1.770000000000000000e+02
-1.700000000000000000e+02
-1.700000000000000000e+02
-1.770000000000000000e+02
-1.740000000000000000e+02
-1.720000000000000000e+02
-1.740000000000000000e+02
-1.700000000000000000e+02
-1.700000000000000000e+02
-1.650000000000000000e+02
-1.600000000000000000e+02
-1.650000000000000000e+02
-1.650000000000000000e+02
-1.500000000000000000e+02
-1.460000000000000000e+02
-1.480000000000000000e+02
-1.480000000000000000e+02
-1.430000000000000000e+02
-1.410000000000000000e+02
-1.530000000000000000e+02
-1.650000000000000000e+02
-1.720000000000000000e+02
-1.740000000000000000e+02
-1.840000000000000000e+02
-1.910000000000000000e+02
-1.860000000000000000e+02
-1.910000000000000000e+02
-2.010000000000000000e+02
-1.960000000000000000e+02
-1.940000000000000000e+02
-1.910000000000000000e+02
-1.860000000000000000e+02
-1.840000000000000000e+02
-1.740000000000000000e+02
-1.720000000000000000e+02
-1.890000000000000000e+02
-2.030000000000000000e+02
-1.940000000000000000e+02
-1.790000000000000000e+02
-1.820000000000000000e+02
-1.790000000000000000e+02
-1.700000000000000000e+02
-1.650000000000000000e+02
-1.600000000000000000e+02
-1.500000000000000000e+02
-1.410000000000000000e+02
-1.390000000000000000e+02
-1.410000000000000000e+02
-1.390000000000000000e+02
-1.290000000000000000e+02
-1.270000000000000000e+02
-1.070000000000000000e+02
-7.600000000000000000e+01
-7.100000000000000000e+01
-1.000000000000000000e+02
-1.100000000000000000e+02
-7.400000000000000000e+01
-6.400000000000000000e+01
-9.500000000000000000e+01
-1.150000000000000000e+02
-1.100000000000000000e+02
-1.000000000000000000e+02
-9.800000000000000000e+01
-1.000000000000000000e+02
-9.500000000000000000e+01
-9.500000000000000000e+01
-9.300000000000000000e+01
-8.300000000000000000e+01
-7.600000000000000000e+01
-6.200000000000000000e+01
3.800000000000000000e+01
4.330000000000000000e+02
1.253000000000000000e+03
1.931000000000000000e+03
1.414000000000000000e+03
-1.580000000000000000e+02
-9.290000000000000000e+02
-3.880000000000000000e+02
-1.290000000000000000e+02
-3.370000000000000000e+02
-2.010000000000000000e+02
-4.700000000000000000e+01
-1.310000000000000000e+02
-1.240000000000000000e+02
-5.200000000000000000e+01
-7.100000000000000000e+01
-9.300000000000000000e+01
-5.700000000000000000e+01
-3.800000000000000000e+01
-5.500000000000000000e+01
-5.200000000000000000e+01
-1.900000000000000000e+01
1.100000000000000000e+01
3.500000000000000000e+01
6.700000000000000000e+01
1.100000000000000000e+02
1.620000000000000000e+02
2.200000000000000000e+02
2.870000000000000000e+02
3.540000000000000000e+02
4.070000000000000000e+02
4.310000000000000000e+02
4.280000000000000000e+02
4.310000000000000000e+02
4.120000000000000000e+02
3.350000000000000000e+02
2.150000000000000000e+02
6.400000000000000000e+01
-8.100000000000000000e+01
-2.010000000000000000e+02
-2.940000000000000000e+02
-3.470000000000000000e+02
-3.780000000000000000e+02
-4.000000000000000000e+02
-4.000000000000000000e+02
-3.900000000000000000e+02
-3.850000000000000000e+02
-3.880000000000000000e+02
-3.830000000000000000e+02
-3.640000000000000000e+02
-3.520000000000000000e+02
-3.400000000000000000e+02
-3.180000000000000000e+02
-3.010000000000000000e+02
-2.940000000000000000e+02
-2.920000000000000000e+02
-2.730000000000000000e+02
-2.490000000000000000e+02
-2.390000000000000000e+02
-2.320000000000000000e+02
-2.250000000000000000e+02
-2.200000000000000000e+02
-2.130000000000000000e+02
-2.030000000000000000e+02
-1.910000000000000000e+02
-1.820000000000000000e+02
-1.840000000000000000e+02
-1.860000000000000000e+02
-1.770000000000000000e+02
-1.670000000000000000e+02
-1.650000000000000000e+02
-1.620000000000000000e+02
-1.530000000000000000e+02
-1.500000000000000000e+02
-1.500000000000000000e+02
-1.430000000000000000e+02
-1.360000000000000000e+02
-1.290000000000000000e+02
-1.290000000000000000e+02
-1.360000000000000000e+02
-1.390000000000000000e+02
-1.310000000000000000e+02
-1.220000000000000000e+02
-1.150000000000000000e+02
-1.120000000000000000e+02
-1.100000000000000000e+02
-1.120000000000000000e+02
-1.070000000000000000e+02
-9.300000000000000000e+01
-8.800000000000000000e+01
-8.800000000000000000e+01
-8.800000000000000000e+01
-8.300000000000000000e+01
-8.300000000000000000e+01
-9.800000000000000000e+01
-9.800000000000000000e+01
-9.300000000000000000e+01
-1.150000000000000000e+02
-1.290000000000000000e+02
-1.150000000000000000e+02
-1.030000000000000000e+02
-1.030000000000000000e+02
-1.030000000000000000e+02
-1.030000000000000000e+02
-1.070000000000000000e+02
-1.120000000000000000e+02
-1.050000000000000000e+02
-1.000000000000000000e+02
-1.030000000000000000e+02
-1.070000000000000000e+02
-1.120000000000000000e+02
-1.170000000000000000e+02
-1.170000000000000000e+02
-9.300000000000000000e+01
-6.200000000000000000e+01
-5.500000000000000000e+01
-7.400000000000000000e+01
-7.100000000000000000e+01
-5.200000000000000000e+01
-5.900000000000000000e+01
-9.100000000000000000e+01
-1.030000000000000000e+02
-8.800000000000000000e+01
-7.900000000000000000e+01
-8.600000000000000000e+01
-1.000000000000000000e+02
-1.070000000000000000e+02
-1.070000000000000000e+02
-1.170000000000000000e+02
-1.240000000000000000e+02
-1.070000000000000000e+02
-5.000000000000000000e+01
1.720000000000000000e+02
7.740000000000000000e+02
1.598000000000000000e+03
1.680000000000000000e+03
3.640000000000000000e+02
-9.170000000000000000e+02
-6.970000000000000000e+02
-1.820000000000000000e+02
-3.400000000000000000e+02
-3.490000000000000000e+02
-1.240000000000000000e+02
-1.410000000000000000e+02
-2.060000000000000000e+02
-1.360000000000000000e+02
-1.000000000000000000e+02
-1.070000000000000000e+02
-8.300000000000000000e+01
-6.200000000000000000e+01
-4.700000000000000000e+01
-2.600000000000000000e+01
-2.000000000000000000e+00
2.600000000000000000e+01
6.200000000000000000e+01
1.030000000000000000e+02
1.360000000000000000e+02
1.740000000000000000e+02
2.340000000000000000e+02
3.010000000000000000e+02
3.640000000000000000e+02
4.310000000000000000e+02
4.840000000000000000e+02
4.930000000000000000e+02
4.690000000000000000e+02
4.450000000000000000e+02
4.090000000000000000e+02
3.130000000000000000e+02
1.720000000000000000e+02
2.800000000000000000e+01
-9.800000000000000000e+01
-1.980000000000000000e+02
-2.820000000000000000e+02
-3.250000000000000000e+02
-3.370000000000000000e+02
-3.610000000000000000e+02
-3.660000000000000000e+02
-3.450000000000000000e+02
-3.280000000000000000e+02
-3.250000000000000000e+02
-3.160000000000000000e+02
-2.940000000000000000e+02
-2.800000000000000000e+02
-2.750000000000000000e+02
-2.610000000000000000e+02
-2.390000000000000000e+02
-2.220000000000000000e+02
-2.150000000000000000e+02
-2.060000000000000000e+02
-1.860000000000000000e+02
-1.720000000000000000e+02
-1.700000000000000000e+02
-1.620000000000000000e+02
-1.580000000000000000e+02
-1.480000000000000000e+02
-1.410000000000000000e+02
-1.390000000000000000e+02
-1.310000000000000000e+02
-1.310000000000000000e+02
-1.410000000000000000e+02
-1.360000000000000000e+02
-1.220000000000000000e+02
-1.120000000000000000e+02
-1.220000000000000000e+02
-1.410000000000000000e+02
-1.480000000000000000e+02
-1.460000000000000000e+02
-1.480000000000000000e+02
-1.500000000000000000e+02
-1.410000000000000000e+02
-1.360000000000000000e+02
-1.460000000000000000e+02
-1.410000000000000000e+02
-1.290000000000000000e+02
-1.270000000000000000e+02
-1.220000000000000000e+02
-1.190000000000000000e+02
-1.220000000000000000e+02
-1.220000000000000000e+02
-1.150000000000000000e+02
-1.070000000000000000e+02
-1.030000000000000000e+02
-1.030000000000000000e+02
-1.000000000000000000e+02
-9.500000000000000000e+01
-1.000000000000000000e+02
-1.120000000000000000e+02
-1.190000000000000000e+02
-1.340000000000000000e+02
-1.670000000000000000e+02
-1.820000000000000000e+02
-1.650000000000000000e+02
-1.600000000000000000e+02
-1.620000000000000000e+02
-1.650000000000000000e+02
-1.700000000000000000e+02
-1.620000000000000000e+02
-1.430000000000000000e+02
-1.190000000000000000e+02
-1.050000000000000000e+02
-1.270000000000000000e+02
-1.500000000000000000e+02
-1.480000000000000000e+02
-1.460000000000000000e+02
-1.550000000000000000e+02
-1.720000000000000000e+02
-1.790000000000000000e+02
-1.720000000000000000e+02
-1.650000000000000000e+02
-1.550000000000000000e+02
-1.550000000000000000e+02
-1.480000000000000000e+02
-1.360000000000000000e+02
-1.390000000000000000e+02
-1.310000000000000000e+02
-9.100000000000000000e+01
4.300000000000000000e+01
4.740000000000000000e+02
1.282000000000000000e+03
1.823000000000000000e+03
1.040000000000000000e+03
-5.240000000000000000e+02
-9.320000000000000000e+02
-3.130000000000000000e+02
-2.100000000000000000e+02
-3.780000000000000000e+02
-1.860000000000000000e+02
-7.600000000000000000e+01
-1.480000000000000000e+02
-1.190000000000000000e+02
-5.900000000000000000e+01
-7.900000000000000000e+01
-8.300000000000000000e+01
-5.200000000000000000e+01
-3.500000000000000000e+01
-1.600000000000000000e+01
1.100000000000000000e+01
2.800000000000000000e+01
5.200000000000000000e+01
9.100000000000000000e+01
1.340000000000000000e+02
1.720000000000000000e+02
2.200000000000000000e+02
2.850000000000000000e+02
3.520000000000000000e+02
4.190000000000000000e+02
4.790000000000000000e+02
5.200000000000000000e+02
5.340000000000000000e+02
5.170000000000000000e+02
4.790000000000000000e+02
4.090000000000000000e+02
2.850000000000000000e+02
1.240000000000000000e+02
-3.800000000000000000e+01
-1.650000000000000000e+02
-2.420000000000000000e+02
-2.940000000000000000e+02
-3.210000000000000000e+02
-3.230000000000000000e+02
-3.280000000000000000e+02
-3.300000000000000000e+02
-3.210000000000000000e+02
-3.160000000000000000e+02
-3.180000000000000000e+02
-3.060000000000000000e+02
-2.850000000000000000e+02
-2.780000000000000000e+02
-2.700000000000000000e+02
-2.510000000000000000e+02
-2.300000000000000000e+02
-2.130000000000000000e+02
-2.060000000000000000e+02
-2.010000000000000000e+02
-1.860000000000000000e+02
-1.840000000000000000e+02
-1.940000000000000000e+02
-1.910000000000000000e+02
-1.770000000000000000e+02
-1.770000000000000000e+02
-1.790000000000000000e+02
-1.700000000000000000e+02
-1.580000000000000000e+02
-1.580000000000000000e+02
-1.600000000000000000e+02
-1.550000000000000000e+02
-1.480000000000000000e+02
-1.430000000000000000e+02
-1.430000000000000000e+02
-1.360000000000000000e+02
-1.290000000000000000e+02
-1.390000000000000000e+02
-1.500000000000000000e+02
-1.480000000000000000e+02
-1.430000000000000000e+02
-1.480000000000000000e+02
-1.600000000000000000e+02
-1.580000000000000000e+02
-1.480000000000000000e+02
-1.460000000000000000e+02
-1.410000000000000000e+02
-1.340000000000000000e+02
-1.310000000000000000e+02
-1.360000000000000000e+02
-1.360000000000000000e+02
-1.220000000000000000e+02
-1.120000000000000000e+02
-1.170000000000000000e+02
-1.170000000000000000e+02
-1.150000000000000000e+02
-1.070000000000000000e+02
-1.000000000000000000e+02
-9.800000000000000000e+01
-9.800000000000000000e+01
-1.100000000000000000e+02
-1.240000000000000000e+02
-1.340000000000000000e+02
-1.360000000000000000e+02
-1.430000000000000000e+02
-1.600000000000000000e+02
-1.600000000000000000e+02
-1.220000000000000000e+02
-1.030000000000000000e+02
-1.310000000000000000e+02
-1.390000000000000000e+02
-1.070000000000000000e+02
-1.050000000000000000e+02
-1.500000000000000000e+02
-1.740000000000000000e+02
-1.620000000000000000e+02
-1.550000000000000000e+02
-1.600000000000000000e+02
-1.580000000000000000e+02
-1.530000000000000000e+02
-1.500000000000000000e+02
-1.430000000000000000e+02
-1.310000000000000000e+02
-1.170000000000000000e+02
-7.600000000000000000e+01
1.100000000000000000e+02
6.590000000000000000e+02
1.497000000000000000e+03
1.766000000000000000e+03
6.230000000000000000e+02
-8.140000000000000000e+02
-8.170000000000000000e+02
-2.440000000000000000e+02
-3.180000000000000000e+02
-3.760000000000000000e+02
-1.480000000000000000e+02
-1.310000000000000000e+02
-1.980000000000000000e+02
-1.240000000000000000e+02
-8.100000000000000000e+01
-1.000000000000000000e+02
-7.400000000000000000e+01
-4.300000000000000000e+01
-3.800000000000000000e+01
-2.600000000000000000e+01
-4.000000000000000000e+00
1.100000000000000000e+01
3.500000000000000000e+01
6.900000000000000000e+01
1.050000000000000000e+02
1.530000000000000000e+02
2.150000000000000000e+02
2.750000000000000000e+02
3.420000000000000000e+02
4.140000000000000000e+02
4.640000000000000000e+02
4.930000000000000000e+02
5.080000000000000000e+02
4.980000000000000000e+02
4.520000000000000000e+02
3.590000000000000000e+02
2.320000000000000000e+02
9.100000000000000000e+01
-4.000000000000000000e+01
-1.430000000000000000e+02
-2.180000000000000000e+02
-2.630000000000000000e+02
-2.920000000000000000e+02
-3.010000000000000000e+02
-2.940000000000000000e+02
-3.040000000000000000e+02
-3.250000000000000000e+02
-3.180000000000000000e+02
-2.990000000000000000e+02
-2.870000000000000000e+02
-2.750000000000000000e+02
-2.660000000000000000e+02
-2.630000000000000000e+02
-2.630000000000000000e+02
-2.540000000000000000e+02
-2.320000000000000000e+02
-2.150000000000000000e+02
-2.030000000000000000e+02
-1.960000000000000000e+02
-1.890000000000000000e+02
-1.820000000000000000e+02
-1.770000000000000000e+02
-1.670000000000000000e+02
-1.550000000000000000e+02
-1.480000000000000000e+02
-1.480000000000000000e+02
-1.530000000000000000e+02
-1.480000000000000000e+02
-1.360000000000000000e+02
-1.340000000000000000e+02
-1.340000000000000000e+02
-1.310000000000000000e+02
-1.270000000000000000e+02
-1.220000000000000000e+02
-1.170000000000000000e+02
-1.100000000000000000e+02
-1.030000000000000000e+02
-1.070000000000000000e+02
-1.120000000000000000e+02
-1.030000000000000000e+02
-9.500000000000000000e+01
-1.070000000000000000e+02
-1.190000000000000000e+02
-1.170000000000000000e+02
-1.310000000000000000e+02
-1.550000000000000000e+02
-1.550000000000000000e+02
-1.460000000000000000e+02
-1.410000000000000000e+02
-1.430000000000000000e+02
-1.460000000000000000e+02
-1.310000000000000000e+02
-1.190000000000000000e+02
-1.190000000000000000e+02
-1.170000000000000000e+02
-1.120000000000000000e+02
-1.120000000000000000e+02
-1.100000000000000000e+02
-1.000000000000000000e+02
-9.100000000000000000e+01
-9.500000000000000000e+01
-9.500000000000000000e+01
-7.400000000000000000e+01
-3.500000000000000000e+01
-2.300000000000000000e+01
-5.700000000000000000e+01
-6.400000000000000000e+01
-4.700000000000000000e+01
-7.900000000000000000e+01
-1.170000000000000000e+02
-1.290000000000000000e+02
-1.500000000000000000e+02
-1.670000000000000000e+02
-1.620000000000000000e+02
-1.600000000000000000e+02
-1.620000000000000000e+02
-1.650000000000000000e+02
-1.580000000000000000e+02
-1.530000000000000000e+02
-1.410000000000000000e+02
-6.900000000000000000e+01
1.910000000000000000e+02
8.410000000000000000e+02
1.627000000000000000e+03
1.529000000000000000e+03
9.100000000000000000e+01
-1.028000000000000000e+03
-6.320000000000000000e+02
-1.860000000000000000e+02
-3.730000000000000000e+02
-3.060000000000000000e+02
-9.300000000000000000e+01
-1.410000000000000000e+02
-1.650000000000000000e+02
-7.600000000000000000e+01
-6.200000000000000000e+01
-7.600000000000000000e+01
-4.300000000000000000e+01
-1.900000000000000000e+01
-1.100000000000000000e+01
1.600000000000000000e+01
4.500000000000000000e+01
7.100000000000000000e+01
1.030000000000000000e+02
1.310000000000000000e+02
1.700000000000000000e+02
2.270000000000000000e+02
2.890000000000000000e+02
3.520000000000000000e+02
4.020000000000000000e+02
4.550000000000000000e+02
5.000000000000000000e+02
5.080000000000000000e+02
4.960000000000000000e+02
4.840000000000000000e+02
4.310000000000000000e+02
3.250000000000000000e+02
1.910000000000000000e+02
5.700000000000000000e+01
-6.400000000000000000e+01
-1.650000000000000000e+02
-2.270000000000000000e+02
-2.660000000000000000e+02
-2.890000000000000000e+02
-2.890000000000000000e+02
-2.820000000000000000e+02
-2.750000000000000000e+02
-2.700000000000000000e+02
-2.660000000000000000e+02
-2.540000000000000000e+02
-2.420000000000000000e+02
-2.320000000000000000e+02
-2.180000000000000000e+02
-2.030000000000000000e+02
-1.940000000000000000e+02
-1.890000000000000000e+02
-1.790000000000000000e+02
-1.820000000000000000e+02
-1.940000000000000000e+02
-1.960000000000000000e+02
-1.940000000000000000e+02
-1.980000000000000000e+02
-1.890000000000000000e+02
-1.820000000000000000e+02
-1.770000000000000000e+02
-1.700000000000000000e+02
-1.720000000000000000e+02
-1.700000000000000000e+02
-1.580000000000000000e+02
-1.530000000000000000e+02
-1.530000000000000000e+02
-1.530000000000000000e+02
-1.500000000000000000e+02
-1.460000000000000000e+02
-1.410000000000000000e+02
-1.360000000000000000e+02
-1.270000000000000000e+02
-1.190000000000000000e+02
-1.220000000000000000e+02
-1.240000000000000000e+02
-1.100000000000000000e+02
-1.050000000000000000e+02
-1.100000000000000000e+02
-1.070000000000000000e+02
-1.000000000000000000e+02
-9.500000000000000000e+01
-1.000000000000000000e+02
-1.000000000000000000e+02
-8.100000000000000000e+01
-5.500000000000000000e+01
-3.500000000000000000e+01
-3.800000000000000000e+01
-6.200000000000000000e+01
-6.400000000000000000e+01
-5.900000000000000000e+01
-8.600000000000000000e+01
-1.170000000000000000e+02
-1.310000000000000000e+02
-1.240000000000000000e+02
-1.220000000000000000e+02
-1.240000000000000000e+02
-1.190000000000000000e+02
-1.220000000000000000e+02
-1.170000000000000000e+02
-1.050000000000000000e+02
-1.000000000000000000e+02
-7.600000000000000000e+01
1.600000000000000000e+01
3.230000000000000000e+02
1.011000000000000000e+03
1.711000000000000000e+03
1.346000000000000000e+03
-2.010000000000000000e+02
-1.068000000000000000e+03
-5.340000000000000000e+02
-2.010000000000000000e+02
-3.950000000000000000e+02
-2.780000000000000000e+02
-1.070000000000000000e+02
-1.740000000000000000e+02
-1.910000000000000000e+02
-1.240000000000000000e+02
-1.290000000000000000e+02
-1.580000000000000000e+02
-1.430000000000000000e+02
-1.410000000000000000e+02
-1.410000000000000000e+02
-1.030000000000000000e+02
-6.400000000000000000e+01
-4.700000000000000000e+01
-1.600000000000000000e+01
3.100000000000000000e+01
7.900000000000000000e+01
1.240000000000000000e+02
1.860000000000000000e+02
2.630000000000000000e+02
3.370000000000000000e+02
3.970000000000000000e+02
4.380000000000000000e+02
4.600000000000000000e+02
4.570000000000000000e+02
4.190000000000000000e+02
3.470000000000000000e+02
2.320000000000000000e+02
8.100000000000000000e+01
-6.400000000000000000e+01
-1.700000000000000000e+02
-2.490000000000000000e+02
-3.010000000000000000e+02
-3.350000000000000000e+02
-3.420000000000000000e+02
-3.350000000000000000e+02
-3.280000000000000000e+02
-3.210000000000000000e+02
-3.090000000000000000e+02
-2.970000000000000000e+02
-2.970000000000000000e+02
-2.990000000000000000e+02
-2.750000000000000000e+02
-2.540000000000000000e+02
-2.460000000000000000e+02
-2.390000000000000000e+02
-2.250000000000000000e+02
-2.060000000000000000e+02
-1.910000000000000000e+02
-1.860000000000000000e+02
-1.720000000000000000e+02
-1.620000000000000000e+02
-1.620000000000000000e+02
-1.550000000000000000e+02
-1.430000000000000000e+02
-1.390000000000000000e+02
-1.390000000000000000e+02
-1.360000000000000000e+02
-1.310000000000000000e+02
-1.310000000000000000e+02
-1.310000000000000000e+02
-1.240000000000000000e+02
-1.170000000000000000e+02
-1.150000000000000000e+02
-1.220000000000000000e+02
-1.170000000000000000e+02
-1.070000000000000000e+02
-1.170000000000000000e+02
-1.340000000000000000e+02
-1.310000000000000000e+02
-1.220000000000000000e+02
-1.270000000000000000e+02
-1.500000000000000000e+02
-1.670000000000000000e+02
-1.580000000000000000e+02
-1.530000000000000000e+02
-1.620000000000000000e+02
-1.600000000000000000e+02
-1.390000000000000000e+02
-1.100000000000000000e+02
-8.300000000000000000e+01
-8.100000000000000000e+01
-1.030000000000000000e+02
-9.300000000000000000e+01
-7.400000000000000000e+01
-8.800000000000000000e+01
-1.120000000000000000e+02
-1.190000000000000000e+02
-1.170000000000000000e+02
-1.100000000000000000e+02
-1.070000000000000000e+02
-1.100000000000000000e+02
-1.070000000000000000e+02
-1.000000000000000000e+02
-9.500000000000000000e+01
-9.500000000000000000e+01
-6.900000000000000000e+01
3.800000000000000000e+01
3.710000000000000000e+02
1.104000000000000000e+03
1.814000000000000000e+03
1.378000000000000000e+03
-2.130000000000000000e+02
-1.042000000000000000e+03
-5.000000000000000000e+02
-2.100000000000000000e+02
-4.090000000000000000e+02
-2.700000000000000000e+02
-1.030000000000000000e+02
-1.740000000000000000e+02
-1.740000000000000000e+02
-1.070000000000000000e+02
-1.100000000000000000e+02
-1.070000000000000000e+02
-7.400000000000000000e+01
-5.900000000000000000e+01
-4.500000000000000000e+01
-1.900000000000000000e+01
0.000000000000000000e+00
1.900000000000000000e+01
5.900000000000000000e+01
1.030000000000000000e+02
1.410000000000000000e+02
1.890000000000000000e+02
2.440000000000000000e+02
2.990000000000000000e+02
3.540000000000000000e+02
4.020000000000000000e+02
4.330000000000000000e+02
4.400000000000000000e+02
4.240000000000000000e+02
3.810000000000000000e+02
3.010000000000000000e+02
1.820000000000000000e+02
2.800000000000000000e+01
-1.170000000000000000e+02
-2.420000000000000000e+02
-3.470000000000000000e+02
-4.170000000000000000e+02
-4.430000000000000000e+02
-4.430000000000000000e+02
-4.520000000000000000e+02
-4.740000000000000000e+02
-4.620000000000000000e+02
-4.310000000000000000e+02
-4.210000000000000000e+02
-4.170000000000000000e+02
-3.970000000000000000e+02
-3.810000000000000000e+02
-3.690000000000000000e+02
-3.540000000000000000e+02
-3.300000000000000000e+02
-3.110000000000000000e+02
-3.010000000000000000e+02
-2.920000000000000000e+02
-2.780000000000000000e+02
-2.610000000000000000e+02
-2.510000000000000000e+02
-2.460000000000000000e+02
-2.340000000000000000e+02
-2.270000000000000000e+02
-2.250000000000000000e+02
-2.150000000000000000e+02
-2.080000000000000000e+02
-2.010000000000000000e+02
-2.010000000000000000e+02
-2.030000000000000000e+02
-1.960000000000000000e+02
-1.980000000000000000e+02
-2.100000000000000000e+02
-2.060000000000000000e+02
-1.940000000000000000e+02
-1.910000000000000000e+02
-1.940000000000000000e+02
-1.820000000000000000e+02
-1.670000000000000000e+02
-1.650000000000000000e+02
-1.620000000000000000e+02
-1.580000000000000000e+02
-1.530000000000000000e+02
-1.430000000000000000e+02
-1.460000000000000000e+02
-1.410000000000000000e+02
-1.240000000000000000e+02
-9.800000000000000000e+01
-7.100000000000000000e+01
-7.600000000000000000e+01
-8.600000000000000000e+01
-6.900000000000000000e+01
-6.900000000000000000e+01
-9.300000000000000000e+01
-1.050000000000000000e+02
-1.070000000000000000e+02
-1.050000000000000000e+02
-9.800000000000000000e+01
-9.500000000000000000e+01
-1.000000000000000000e+02
-1.030000000000000000e+02
-9.300000000000000000e+01
-8.600000000000000000e+01
-9.100000000000000000e+01
-8.100000000000000000e+01
-2.000000000000000000e+00
3.180000000000000000e+02
1.047000000000000000e+03
1.778000000000000000e+03
1.385000000000000000e+03
-2.220000000000000000e+02
-1.114000000000000000e+03
-5.600000000000000000e+02
-2.150000000000000000e+02
-4.120000000000000000e+02
-2.920000000000000000e+02
-1.220000000000000000e+02
-1.840000000000000000e+02
-1.860000000000000000e+02
-1.100000000000000000e+02
-1.070000000000000000e+02
-1.050000000000000000e+02
-6.900000000000000000e+01
-5.900000000000000000e+01
-5.000000000000000000e+01
-1.400000000000000000e+01
9.000000000000000000e+00
3.100000000000000000e+01
6.400000000000000000e+01
9.100000000000000000e+01
1.190000000000000000e+02
1.670000000000000000e+02
2.320000000000000000e+02
3.010000000000000000e+02
3.640000000000000000e+02
4.170000000000000000e+02
4.400000000000000000e+02
4.520000000000000000e+02
4.450000000000000000e+02
4.020000000000000000e+02
3.210000000000000000e+02
1.940000000000000000e+02
4.000000000000000000e+01
-9.500000000000000000e+01
-1.960000000000000000e+02
-2.730000000000000000e+02
-3.250000000000000000e+02
-3.570000000000000000e+02
-3.570000000000000000e+02
-3.520000000000000000e+02
-3.520000000000000000e+02
-3.520000000000000000e+02
-3.540000000000000000e+02
-3.590000000000000000e+02
-3.640000000000000000e+02
-3.540000000000000000e+02
-3.330000000000000000e+02
-3.250000000000000000e+02
-3.230000000000000000e+02
-3.130000000000000000e+02
-2.920000000000000000e+02
-2.750000000000000000e+02
-2.730000000000000000e+02
-2.610000000000000000e+02
-2.460000000000000000e+02
-2.460000000000000000e+02
-2.440000000000000000e+02
-2.390000000000000000e+02
-2.420000000000000000e+02
-2.420000000000000000e+02
-2.340000000000000000e+02
-2.370000000000000000e+02
-2.540000000000000000e+02
-2.680000000000000000e+02
-2.580000000000000000e+02
-2.490000000000000000e+02
-2.440000000000000000e+02
-2.420000000000000000e+02
-2.370000000000000000e+02
-2.200000000000000000e+02
-2.100000000000000000e+02
-2.080000000000000000e+02
-2.060000000000000000e+02
-2.030000000000000000e+02
-1.960000000000000000e+02
-2.010000000000000000e+02
-2.080000000000000000e+02
-1.940000000000000000e+02
-1.890000000000000000e+02
-1.960000000000000000e+02
-1.820000000000000000e+02
-1.480000000000000000e+02
-1.100000000000000000e+02
-1.030000000000000000e+02
-1.240000000000000000e+02
-1.150000000000000000e+02
-9.500000000000000000e+01
-1.070000000000000000e+02
-1.290000000000000000e+02
-1.360000000000000000e+02
-1.460000000000000000e+02
-1.580000000000000000e+02
-1.480000000000000000e+02
-1.310000000000000000e+02
-1.310000000000000000e+02
-1.270000000000000000e+02
-1.190000000000000000e+02
-1.150000000000000000e+02
-1.000000000000000000e+02
-4.700000000000000000e+01
1.480000000000000000e+02
6.870000000000000000e+02
1.524000000000000000e+03
1.783000000000000000e+03
5.650000000000000000e+02
-8.860000000000000000e+02
-8.050000000000000000e+02
-1.980000000000000000e+02
-2.850000000000000000e+02
-3.280000000000000000e+02
-9.800000000000000000e+01
-8.300000000000000000e+01
-1.410000000000000000e+02
-6.700000000000000000e+01
-3.100000000000000000e+01
-5.700000000000000000e+01
-3.100000000000000000e+01
7.000000000000000000e+00
9.000000000000000000e+00
2.100000000000000000e+01
4.700000000000000000e+01
6.900000000000000000e+01
8.800000000000000000e+01
1.220000000000000000e+02
1.700000000000000000e+02
2.180000000000000000e+02
2.700000000000000000e+02
3.280000000000000000e+02
3.810000000000000000e+02
4.210000000000000000e+02
4.640000000000000000e+02
4.930000000000000000e+02
4.960000000000000000e+02
4.620000000000000000e+02
3.950000000000000000e+02
2.850000000000000000e+02
1.500000000000000000e+02
9.000000000000000000e+00
-1.190000000000000000e+02
-2.150000000000000000e+02
-2.780000000000000000e+02
-3.180000000000000000e+02
-3.400000000000000000e+02
-3.400000000000000000e+02
-3.330000000000000000e+02
-3.420000000000000000e+02
-3.570000000000000000e+02
-3.420000000000000000e+02
-3.280000000000000000e+02
-3.230000000000000000e+02
-3.130000000000000000e+02
-2.990000000000000000e+02
-2.820000000000000000e+02
-2.730000000000000000e+02
-2.700000000000000000e+02
-2.610000000000000000e+02
-2.440000000000000000e+02
-2.370000000000000000e+02
-2.270000000000000000e+02
-2.100000000000000000e+02
-1.980000000000000000e+02
-2.030000000000000000e+02
-2.130000000000000000e+02
-2.130000000000000000e+02
-2.250000000000000000e+02
-2.370000000000000000e+02
-2.300000000000000000e+02
-2.200000000000000000e+02
-2.250000000000000000e+02
-2.320000000000000000e+02
-2.250000000000000000e+02
-2.130000000000000000e+02
-2.150000000000000000e+02
-2.150000000000000000e+02
-2.100000000000000000e+02
-2.030000000000000000e+02
-1.980000000000000000e+02
-1.960000000000000000e+02
-1.860000000000000000e+02
-1.790000000000000000e+02
-1.840000000000000000e+02
-1.820000000000000000e+02
-1.530000000000000000e+02
-1.170000000000000000e+02
-1.170000000000000000e+02
-1.360000000000000000e+02
-1.360000000000000000e+02
-1.430000000000000000e+02
-1.600000000000000000e+02
-1.700000000000000000e+02
-1.650000000000000000e+02
-1.530000000000000000e+02
-1.550000000000000000e+02
-1.670000000000000000e+02
-1.770000000000000000e+02
-1.860000000000000000e+02
-1.840000000000000000e+02
-1.700000000000000000e+02
-1.620000000000000000e+02
-1.430000000000000000e+02
-6.400000000000000000e+01
2.220000000000000000e+02
9.270000000000000000e+02
1.732000000000000000e+03
1.507000000000000000e+03
-7.100000000000000000e+01
-1.102000000000000000e+03
-5.910000000000000000e+02
-1.980000000000000000e+02
-4.020000000000000000e+02
-2.890000000000000000e+02
-9.100000000000000000e+01
-1.500000000000000000e+02
-1.620000000000000000e+02
-7.600000000000000000e+01
-7.100000000000000000e+01
-8.300000000000000000e+01
-5.700000000000000000e+01
-4.700000000000000000e+01
-4.500000000000000000e+01
-1.900000000000000000e+01
1.100000000000000000e+01
3.500000000000000000e+01
5.200000000000000000e+01
7.100000000000000000e+01
1.190000000000000000e+02
1.820000000000000000e+02
2.420000000000000000e+02
3.060000000000000000e+02
3.730000000000000000e+02
4.360000000000000000e+02
4.740000000000000000e+02
4.880000000000000000e+02
4.840000000000000000e+02
4.400000000000000000e+02
3.450000000000000000e+02
2.130000000000000000e+02
6.700000000000000000e+01
-6.900000000000000000e+01
-1.770000000000000000e+02
-2.510000000000000000e+02
-2.970000000000000000e+02
-3.210000000000000000e+02
-3.250000000000000000e+02
-3.210000000000000000e+02
-3.110000000000000000e+02
-3.090000000000000000e+02
-3.180000000000000000e+02
-3.130000000000000000e+02
-3.040000000000000000e+02
-3.110000000000000000e+02
-3.110000000000000000e+02
-2.940000000000000000e+02
-2.850000000000000000e+02
-2.750000000000000000e+02
-2.630000000000000000e+02
-2.460000000000000000e+02
-2.300000000000000000e+02
-2.250000000000000000e+02
-2.300000000000000000e+02
-2.440000000000000000e+02
-2.460000000000000000e+02
-2.320000000000000000e+02
-2.270000000000000000e+02
-2.220000000000000000e+02
-2.180000000000000000e+02
-2.150000000000000000e+02
-2.100000000000000000e+02
-2.130000000000000000e+02
-2.180000000000000000e+02
-2.220000000000000000e+02
-2.390000000000000000e+02
-2.420000000000000000e+02
-2.320000000000000000e+02
-2.320000000000000000e+02
-2.300000000000000000e+02
-2.250000000000000000e+02
-2.220000000000000000e+02
-2.220000000000000000e+02
-2.130000000000000000e+02
-1.980000000000000000e+02
-1.980000000000000000e+02
-2.080000000000000000e+02
-2.100000000000000000e+02
-1.980000000000000000e+02
-1.890000000000000000e+02
-1.890000000000000000e+02
-1.820000000000000000e+02
-1.700000000000000000e+02
-1.700000000000000000e+02
-1.700000000000000000e+02
-1.580000000000000000e+02
-1.480000000000000000e+02
-1.460000000000000000e+02
-1.480000000000000000e+02
-1.430000000000000000e+02
-1.360000000000000000e+02
-1.390000000000000000e+02
-1.500000000000000000e+02
-1.480000000000000000e+02
-1.410000000000000000e+02
-1.460000000000000000e+02
-1.410000000000000000e+02
-1.000000000000000000e+02
-6.200000000000000000e+01
-6.900000000000000000e+01
-9.500000000000000000e+01
-8.300000000000000000e+01
-5.900000000000000000e+01
-7.600000000000000000e+01
-1.030000000000000000e+02
-1.000000000000000000e+02
-9.300000000000000000e+01
-1.000000000000000000e+02
-1.070000000000000000e+02
-1.070000000000000000e+02
-1.000000000000000000e+02
-1.000000000000000000e+02
-9.800000000000000000e+01
-9.100000000000000000e+01
-8.100000000000000000e+01
-4.300000000000000000e+01
1.220000000000000000e+02
6.350000000000000000e+02
1.505000000000000000e+03
1.898000000000000000e+03
8.310000000000000000e+02
-7.330000000000000000e+02
-8.840000000000000000e+02
-2.440000000000000000e+02
-2.560000000000000000e+02
-3.730000000000000000e+02
-1.480000000000000000e+02
-9.500000000000000000e+01
-1.650000000000000000e+02
-1.030000000000000000e+02
-5.700000000000000000e+01
-8.100000000000000000e+01
-6.200000000000000000e+01
-2.100000000000000000e+01
-1.400000000000000000e+01
-4.000000000000000000e+00
2.600000000000000000e+01
4.700000000000000000e+01
6.700000000000000000e+01
9.500000000000000000e+01
1.240000000000000000e+02
1.670000000000000000e+02
2.200000000000000000e+02
2.750000000000000000e+02
3.450000000000000000e+02
4.170000000000000000e+02
4.620000000000000000e+02
4.810000000000000000e+02
4.840000000000000000e+02
4.690000000000000000e+02
4.170000000000000000e+02
3.230000000000000000e+02
2.030000000000000000e+02
5.900000000000000000e+01
-7.900000000000000000e+01
-1.820000000000000000e+02
-2.510000000000000000e+02
-2.920000000000000000e+02
-3.160000000000000000e+02
-3.210000000000000000e+02
-3.160000000000000000e+02
-3.250000000000000000e+02
-3.370000000000000000e+02
-3.280000000000000000e+02
-3.060000000000000000e+02
-2.970000000000000000e+02
-2.920000000000000000e+02
-2.820000000000000000e+02
-2.750000000000000000e+02
-2.750000000000000000e+02
-2.700000000000000000e+02
-2.730000000000000000e+02
-2.870000000000000000e+02
-2.890000000000000000e+02
-2.780000000000000000e+02
-2.630000000000000000e+02
-2.560000000000000000e+02
-2.510000000000000000e+02
-2.490000000000000000e+02
-2.460000000000000000e+02
-2.370000000000000000e+02
-2.270000000000000000e+02
-2.250000000000000000e+02
-2.200000000000000000e+02
-2.370000000000000000e+02
-2.630000000000000000e+02
-2.580000000000000000e+02
-2.390000000000000000e+02
-2.320000000000000000e+02
-2.320000000000000000e+02
-2.250000000000000000e+02
-2.150000000000000000e+02
-2.100000000000000000e+02
-2.060000000000000000e+02
-1.940000000000000000e+02
-1.840000000000000000e+02
-1.770000000000000000e+02
-1.790000000000000000e+02
-1.720000000000000000e+02
-1.550000000000000000e+02
-1.480000000000000000e+02
-1.460000000000000000e+02
-1.410000000000000000e+02
-1.430000000000000000e+02
-1.530000000000000000e+02
-1.530000000000000000e+02
-1.360000000000000000e+02
-1.270000000000000000e+02
-1.290000000000000000e+02
-1.290000000000000000e+02
-1.220000000000000000e+02
-1.100000000000000000e+02
-1.030000000000000000e+02
-1.000000000000000000e+02
-9.300000000000000000e+01
-8.800000000000000000e+01
-8.800000000000000000e+01
-8.300000000000000000e+01
-8.100000000000000000e+01
-7.100000000000000000e+01
-6.900000000000000000e+01
-7.400000000000000000e+01
-6.700000000000000000e+01
-5.700000000000000000e+01
-5.500000000000000000e+01
-5.000000000000000000e+01
-4.500000000000000000e+01
-4.500000000000000000e+01
-5.200000000000000000e+01
-4.500000000000000000e+01
-3.100000000000000000e+01
-3.100000000000000000e+01
-4.000000000000000000e+01
-4.300000000000000000e+01
-2.100000000000000000e+01
1.400000000000000000e+01
1.900000000000000000e+01
-9.000000000000000000e+00
-1.600000000000000000e+01
-2.000000000000000000e+00
-2.100000000000000000e+01
-5.500000000000000000e+01
-5.700000000000000000e+01
-5.500000000000000000e+01
-6.400000000000000000e+01
-6.700000000000000000e+01
-5.900000000000000000e+01
-5.900000000000000000e+01
-5.500000000000000000e+01
-5.700000000000000000e+01
-7.900000000000000000e+01
-1.030000000000000000e+02
-8.600000000000000000e+01
2.300000000000000000e+01
3.950000000000000000e+02
1.169000000000000000e+03
1.835000000000000000e+03
1.301000000000000000e+03
-2.800000000000000000e+02
-9.970000000000000000e+02
-4.240000000000000000e+02
-1.720000000000000000e+02
-3.710000000000000000e+02
-2.340000000000000000e+02
-8.800000000000000000e+01
-1.500000000000000000e+02
-1.290000000000000000e+02
-6.200000000000000000e+01
-7.900000000000000000e+01
-8.800000000000000000e+01
-5.200000000000000000e+01
-3.500000000000000000e+01
-3.100000000000000000e+01
-7.000000000000000000e+00
1.100000000000000000e+01
1.600000000000000000e+01
3.500000000000000000e+01
7.400000000000000000e+01
1.150000000000000000e+02
1.620000000000000000e+02
2.130000000000000000e+02
2.730000000000000000e+02
3.420000000000000000e+02
4.000000000000000000e+02
4.430000000000000000e+02
4.690000000000000000e+02
4.690000000000000000e+02
4.360000000000000000e+02
3.660000000000000000e+02
2.660000000000000000e+02
1.290000000000000000e+02
-1.100000000000000000e+01
-1.270000000000000000e+02
-2.180000000000000000e+02
-2.820000000000000000e+02
-3.110000000000000000e+02
-3.180000000000000000e+02
-3.230000000000000000e+02
-3.280000000000000000e+02
-3.280000000000000000e+02
-3.250000000000000000e+02
-3.210000000000000000e+02
-3.060000000000000000e+02
-2.890000000000000000e+02
-2.800000000000000000e+02
-2.800000000000000000e+02
-2.820000000000000000e+02
-2.750000000000000000e+02
-2.560000000000000000e+02
-2.440000000000000000e+02
-2.340000000000000000e+02
-2.220000000000000000e+02
-2.100000000000000000e+02
-1.960000000000000000e+02
-1.890000000000000000e+02
-1.910000000000000000e+02
-2.080000000000000000e+02
-2.180000000000000000e+02
-2.060000000000000000e+02
-1.940000000000000000e+02
-1.890000000000000000e+02
-1.790000000000000000e+02
-1.790000000000000000e+02
-1.820000000000000000e+02
-1.740000000000000000e+02
-1.650000000000000000e+02
-1.600000000000000000e+02
-1.550000000000000000e+02
-1.500000000000000000e+02
-1.480000000000000000e+02
-1.460000000000000000e+02
-1.360000000000000000e+02
-1.460000000000000000e+02
-1.530000000000000000e+02
-1.430000000000000000e+02
-1.360000000000000000e+02
-1.310000000000000000e+02
-1.240000000000000000e+02
-1.190000000000000000e+02
-1.100000000000000000e+02
-1.070000000000000000e+02
-1.100000000000000000e+02
-1.050000000000000000e+02
-9.500000000000000000e+01
-8.800000000000000000e+01
-8.800000000000000000e+01
-8.600000000000000000e+01
-8.100000000000000000e+01
-8.100000000000000000e+01
-7.900000000000000000e+01
-7.400000000000000000e+01
-6.700000000000000000e+01
-6.400000000000000000e+01
-7.100000000000000000e+01
-6.700000000000000000e+01
-5.500000000000000000e+01
-6.200000000000000000e+01
-7.600000000000000000e+01
-7.600000000000000000e+01
-7.400000000000000000e+01
-7.100000000000000000e+01
-7.600000000000000000e+01
-7.100000000000000000e+01
-6.900000000000000000e+01
-9.100000000000000000e+01
-1.100000000000000000e+02
-1.000000000000000000e+02
-6.900000000000000000e+01
-4.000000000000000000e+01
-3.100000000000000000e+01
-5.200000000000000000e+01
-6.200000000000000000e+01
-4.000000000000000000e+01
-4.000000000000000000e+01
-6.700000000000000000e+01
-7.600000000000000000e+01
-8.100000000000000000e+01
-9.100000000000000000e+01
-9.800000000000000000e+01
-1.030000000000000000e+02
-1.120000000000000000e+02
-1.430000000000000000e+02
-1.650000000000000000e+02
-1.600000000000000000e+02
-1.700000000000000000e+02
-1.530000000000000000e+02
-2.000000000000000000e+00
4.380000000000000000e+02
1.239000000000000000e+03
1.756000000000000000e+03
9.340000000000000000e+02
-6.320000000000000000e+02
-1.004000000000000000e+03
-3.710000000000000000e+02
-2.850000000000000000e+02
-4.450000000000000000e+02
-2.560000000000000000e+02
-1.600000000000000000e+02
-2.270000000000000000e+02
-1.840000000000000000e+02
-1.310000000000000000e+02
-1.430000000000000000e+02
-1.240000000000000000e+02
-8.800000000000000000e+01
-7.400000000000000000e+01
-5.900000000000000000e+01
-2.800000000000000000e+01
-9.000000000000000000e+00
1.100000000000000000e+01
5.200000000000000000e+01
9.500000000000000000e+01
1.360000000000000000e+02
1.860000000000000000e+02
2.460000000000000000e+02
3.210000000000000000e+02
3.900000000000000000e+02
4.480000000000000000e+02
4.980000000000000000e+02
5.220000000000000000e+02
5.120000000000000000e+02
4.760000000000000000e+02
4.070000000000000000e+02
2.920000000000000000e+02
1.410000000000000000e+02
-4.000000000000000000e+00
-1.220000000000000000e+02
-2.080000000000000000e+02
-2.630000000000000000e+02
-3.010000000000000000e+02
-3.180000000000000000e+02
-3.160000000000000000e+02
-3.180000000000000000e+02
-3.110000000000000000e+02
-2.920000000000000000e+02
-2.820000000000000000e+02
-2.780000000000000000e+02
-2.680000000000000000e+02
-2.540000000000000000e+02
-2.440000000000000000e+02
-2.370000000000000000e+02
-2.200000000000000000e+02
-2.030000000000000000e+02
-1.960000000000000000e+02
-1.890000000000000000e+02
-1.770000000000000000e+02
-1.600000000000000000e+02
-1.550000000000000000e+02
-1.670000000000000000e+02
-1.790000000000000000e+02
-1.740000000000000000e+02
-1.650000000000000000e+02
-1.620000000000000000e+02
-1.580000000000000000e+02
-1.480000000000000000e+02
-1.500000000000000000e+02
-1.550000000000000000e+02
-1.480000000000000000e+02
-1.580000000000000000e+02
-1.840000000000000000e+02
-2.030000000000000000e+02
-2.080000000000000000e+02
-2.130000000000000000e+02
-2.150000000000000000e+02
-2.060000000000000000e+02
-1.910000000000000000e+02
-1.890000000000000000e+02
-1.890000000000000000e+02
-1.860000000000000000e+02
-1.740000000000000000e+02
-1.650000000000000000e+02
-1.670000000000000000e+02
-1.600000000000000000e+02
-1.480000000000000000e+02
-1.480000000000000000e+02
-1.480000000000000000e+02
-1.390000000000000000e+02
-1.290000000000000000e+02
-1.270000000000000000e+02
-1.360000000000000000e+02
-1.430000000000000000e+02
-1.430000000000000000e+02
-1.500000000000000000e+02
-1.550000000000000000e+02
-1.480000000000000000e+02
-1.460000000000000000e+02
-1.550000000000000000e+02
-1.580000000000000000e+02
-1.460000000000000000e+02
-1.390000000000000000e+02
-1.390000000000000000e+02
-1.390000000000000000e+02
-1.410000000000000000e+02
-1.480000000000000000e+02
-1.580000000000000000e+02
-1.550000000000000000e+02
-1.460000000000000000e+02
-1.430000000000000000e+02
-1.310000000000000000e+02
-1.000000000000000000e+02
-6.900000000000000000e+01
-7.900000000000000000e+01
-1.030000000000000000e+02
-8.300000000000000000e+01
-6.900000000000000000e+01
-9.300000000000000000e+01
-1.120000000000000000e+02
-1.100000000000000000e+02
-1.000000000000000000e+02
-9.800000000000000000e+01
-1.050000000000000000e+02
-1.030000000000000000e+02
-9.100000000000000000e+01
-8.300000000000000000e+01
-9.300000000000000000e+01
-1.100000000000000000e+02
-9.100000000000000000e+01
1.900000000000000000e+01
3.760000000000000000e+02
1.145000000000000000e+03
1.840000000000000000e+03
1.351000000000000000e+03
-2.370000000000000000e+02
-1.001000000000000000e+03
-4.330000000000000000e+02
-1.740000000000000000e+02
-3.900000000000000000e+02
-2.460000000000000000e+02
-8.800000000000000000e+01
-1.740000000000000000e+02
-1.790000000000000000e+02
-1.030000000000000000e+02
-9.500000000000000000e+01
-1.050000000000000000e+02
-7.900000000000000000e+01
-5.200000000000000000e+01
-3.500000000000000000e+01
-1.400000000000000000e+01
1.400000000000000000e+01
4.000000000000000000e+01
6.900000000000000000e+01
1.030000000000000000e+02
1.460000000000000000e+02
2.030000000000000000e+02
2.630000000000000000e+02
3.250000000000000000e+02
3.930000000000000000e+02
4.570000000000000000e+02
5.120000000000000000e+02
5.390000000000000000e+02
5.410000000000000000e+02
5.220000000000000000e+02
4.570000000000000000e+02
3.470000000000000000e+02
2.080000000000000000e+02
6.400000000000000000e+01
-5.900000000000000000e+01
-1.740000000000000000e+02
-2.560000000000000000e+02
-2.890000000000000000e+02
-3.010000000000000000e+02
-3.090000000000000000e+02
-3.060000000000000000e+02
-2.940000000000000000e+02
-2.920000000000000000e+02
-2.870000000000000000e+02
-2.700000000000000000e+02
-2.580000000000000000e+02
-2.510000000000000000e+02
-2.420000000000000000e+02
-2.320000000000000000e+02
-2.200000000000000000e+02
-2.100000000000000000e+02
-2.010000000000000000e+02
-1.840000000000000000e+02
-1.720000000000000000e+02
-1.720000000000000000e+02
-1.650000000000000000e+02
-1.530000000000000000e+02
-1.500000000000000000e+02
-1.720000000000000000e+02
-1.960000000000000000e+02
-1.910000000000000000e+02
-1.840000000000000000e+02
-1.860000000000000000e+02
-1.820000000000000000e+02
-1.720000000000000000e+02
-1.670000000000000000e+02
-1.770000000000000000e+02
-1.840000000000000000e+02
-1.860000000000000000e+02
-1.820000000000000000e+02
-1.740000000000000000e+02
-1.740000000000000000e+02
-1.670000000000000000e+02
-1.620000000000000000e+02
-1.620000000000000000e+02
-1.550000000000000000e+02
-1.460000000000000000e+02
-1.460000000000000000e+02
-1.500000000000000000e+02
-1.530000000000000000e+02
-1.530000000000000000e+02
-1.650000000000000000e+02
-1.910000000000000000e+02
-1.940000000000000000e+02
-1.890000000000000000e+02
-1.980000000000000000e+02
-2.130000000000000000e+02
-2.270000000000000000e+02
-2.390000000000000000e+02
-2.580000000000000000e+02
-2.660000000000000000e+02
-2.510000000000000000e+02
-2.370000000000000000e+02
-2.300000000000000000e+02
-2.250000000000000000e+02
-2.200000000000000000e+02
-2.100000000000000000e+02
-2.060000000000000000e+02
-2.030000000000000000e+02
-2.030000000000000000e+02
-2.080000000000000000e+02
-2.080000000000000000e+02
-1.980000000000000000e+02
-1.720000000000000000e+02
-1.310000000000000000e+02
-1.170000000000000000e+02
-1.310000000000000000e+02
-1.290000000000000000e+02
-1.050000000000000000e+02
-1.070000000000000000e+02
-1.310000000000000000e+02
-1.360000000000000000e+02
-1.270000000000000000e+02
-1.290000000000000000e+02
-1.270000000000000000e+02
-1.190000000000000000e+02
-1.170000000000000000e+02
-1.150000000000000000e+02
-1.030000000000000000e+02
-9.100000000000000000e+01
-8.600000000000000000e+01
-4.300000000000000000e+01
1.360000000000000000e+02
6.350000000000000000e+02
1.440000000000000000e+03
1.795000000000000000e+03
7.570000000000000000e+02
-7.500000000000000000e+02
-8.790000000000000000e+02
-2.540000000000000000e+02
-2.630000000000000000e+02
-3.780000000000000000e+02
-1.770000000000000000e+02
-1.190000000000000000e+02
-1.740000000000000000e+02
-1.150000000000000000e+02
-7.600000000000000000e+01
-9.300000000000000000e+01
-6.900000000000000000e+01
-3.500000000000000000e+01
-2.100000000000000000e+01
-4.000000000000000000e+00
2.300000000000000000e+01
4.700000000000000000e+01
6.900000000000000000e+01
1.030000000000000000e+02
1.460000000000000000e+02
1.890000000000000000e+02
2.420000000000000000e+02
3.010000000000000000e+02
3.660000000000000000e+02
4.310000000000000000e+02
4.760000000000000000e+02
5.100000000000000000e+02
5.340000000000000000e+02
5.270000000000000000e+02
4.810000000000000000e+02
4.050000000000000000e+02
2.990000000000000000e+02
1.550000000000000000e+02
4.000000000000000000e+00
-1.120000000000000000e+02
-2.030000000000000000e+02
-2.730000000000000000e+02
-3.060000000000000000e+02
-3.090000000000000000e+02
-3.010000000000000000e+02
-3.040000000000000000e+02
-3.040000000000000000e+02
-2.850000000000000000e+02
-2.730000000000000000e+02
-2.660000000000000000e+02
-2.540000000000000000e+02
-2.460000000000000000e+02
-2.340000000000000000e+02
-2.250000000000000000e+02
-2.100000000000000000e+02
-1.890000000000000000e+02
-1.770000000000000000e+02
-1.720000000000000000e+02
-1.670000000000000000e+02
-1.530000000000000000e+02
-1.410000000000000000e+02
-1.360000000000000000e+02
-1.240000000000000000e+02
-1.170000000000000000e+02
-1.240000000000000000e+02
-1.290000000000000000e+02
-1.340000000000000000e+02
-1.480000000000000000e+02
-1.530000000000000000e+02
-1.500000000000000000e+02
-1.500000000000000000e+02
-1.460000000000000000e+02
-1.460000000000000000e+02
-1.600000000000000000e+02
-1.740000000000000000e+02
-1.700000000000000000e+02
-1.700000000000000000e+02
-1.740000000000000000e+02
-1.600000000000000000e+02
-1.530000000000000000e+02
-1.550000000000000000e+02
-1.530000000000000000e+02
-1.530000000000000000e+02
-1.430000000000000000e+02
-1.410000000000000000e+02
-1.460000000000000000e+02
-1.360000000000000000e+02
-1.270000000000000000e+02
-1.070000000000000000e+02
-7.900000000000000000e+01
-7.400000000000000000e+01
-8.800000000000000000e+01
-8.100000000000000000e+01
-7.600000000000000000e+01
-1.000000000000000000e+02
-1.340000000000000000e+02
-1.460000000000000000e+02
-1.530000000000000000e+02
-1.580000000000000000e+02
-1.620000000000000000e+02
-1.840000000000000000e+02
-2.010000000000000000e+02
-1.890000000000000000e+02
-1.840000000000000000e+02
-1.840000000000000000e+02
-1.700000000000000000e+02
-9.100000000000000000e+01
1.960000000000000000e+02
8.670000000000000000e+02
1.624000000000000000e+03
1.390000000000000000e+03
-1.480000000000000000e+02
-1.150000000000000000e+03
-6.510000000000000000e+02
-2.490000000000000000e+02
-4.400000000000000000e+02
-3.370000000000000000e+02
-1.310000000000000000e+02
-1.820000000000000000e+02
-1.960000000000000000e+02
-1.120000000000000000e+02
-1.030000000000000000e+02
-1.100000000000000000e+02
-7.900000000000000000e+01
-6.200000000000000000e+01
-4.700000000000000000e+01
-2.100000000000000000e+01
4.000000000000000000e+00
3.300000000000000000e+01
6.400000000000000000e+01
1.000000000000000000e+02
1.410000000000000000e+02
1.790000000000000000e+02
2.250000000000000000e+02
2.990000000000000000e+02
3.760000000000000000e+02
4.280000000000000000e+02
4.720000000000000000e+02
4.980000000000000000e+02
4.960000000000000000e+02
4.690000000000000000e+02
4.000000000000000000e+02
2.800000000000000000e+02
1.310000000000000000e+02
-1.400000000000000000e+01
-1.340000000000000000e+02
-2.270000000000000000e+02
-2.990000000000000000e+02
-3.350000000000000000e+02
-3.400000000000000000e+02
-3.370000000000000000e+02
-3.350000000000000000e+02
-3.230000000000000000e+02
-3.090000000000000000e+02
-3.040000000000000000e+02
-2.990000000000000000e+02
-2.800000000000000000e+02
-2.660000000000000000e+02
-2.560000000000000000e+02
-2.460000000000000000e+02
-2.340000000000000000e+02
-2.180000000000000000e+02
-2.060000000000000000e+02
-1.960000000000000000e+02
-1.770000000000000000e+02
-1.650000000000000000e+02
-1.650000000000000000e+02
-1.600000000000000000e+02
-1.480000000000000000e+02
-1.480000000000000000e+02
-1.600000000000000000e+02
-1.600000000000000000e+02
-1.480000000000000000e+02
-1.500000000000000000e+02
-1.650000000000000000e+02
-1.720000000000000000e+02
-1.620000000000000000e+02
-1.580000000000000000e+02
-1.700000000000000000e+02
-1.650000000000000000e+02
-1.480000000000000000e+02
-1.430000000000000000e+02
-1.410000000000000000e+02
-1.360000000000000000e+02
-1.310000000000000000e+02
-1.290000000000000000e+02
-1.240000000000000000e+02
-1.150000000000000000e+02
-1.070000000000000000e+02
-1.070000000000000000e+02
-1.100000000000000000e+02
-1.100000000000000000e+02
-9.800000000000000000e+01
-7.400000000000000000e+01
-4.500000000000000000e+01
-3.500000000000000000e+01
-5.700000000000000000e+01
-7.100000000000000000e+01
-7.100000000000000000e+01
-8.100000000000000000e+01
-9.800000000000000000e+01
-1.190000000000000000e+02
-1.310000000000000000e+02
-1.190000000000000000e+02
-1.120000000000000000e+02
-1.190000000000000000e+02
-1.310000000000000000e+02
-1.340000000000000000e+02
-1.270000000000000000e+02
-1.270000000000000000e+02
-1.120000000000000000e+02
-4.000000000000000000e+01
2.010000000000000000e+02
8.240000000000000000e+02
1.653000000000000000e+03
1.704000000000000000e+03
3.230000000000000000e+02
-9.940000000000000000e+02
-7.400000000000000000e+02
-1.910000000000000000e+02
-3.420000000000000000e+02
-3.400000000000000000e+02
-1.100000000000000000e+02
-1.220000000000000000e+02
-1.700000000000000000e+02
-1.030000000000000000e+02
-8.300000000000000000e+01
-1.030000000000000000e+02
-8.600000000000000000e+01
-7.100000000000000000e+01
-7.600000000000000000e+01
-6.200000000000000000e+01
-3.800000000000000000e+01
-2.800000000000000000e+01
-1.100000000000000000e+01
2.600000000000000000e+01
6.700000000000000000e+01
1.070000000000000000e+02
1.600000000000000000e+02
2.320000000000000000e+02
3.010000000000000000e+02
3.660000000000000000e+02
4.260000000000000000e+02
4.570000000000000000e+02
4.570000000000000000e+02
4.310000000000000000e+02
3.830000000000000000e+02
2.870000000000000000e+02
1.430000000000000000e+02
-9.000000000000000000e+00
-1.390000000000000000e+02
-2.420000000000000000e+02
-3.230000000000000000e+02
-3.710000000000000000e+02
-3.810000000000000000e+02
-3.780000000000000000e+02
-3.850000000000000000e+02
-3.730000000000000000e+02
-3.520000000000000000e+02
-3.420000000000000000e+02
-3.330000000000000000e+02
-3.230000000000000000e+02
-3.280000000000000000e+02
-3.400000000000000000e+02
-3.370000000000000000e+02
-3.230000000000000000e+02
-3.160000000000000000e+02
-3.060000000000000000e+02
-2.920000000000000000e+02
-2.780000000000000000e+02
-2.580000000000000000e+02
-2.440000000000000000e+02
-2.370000000000000000e+02
-2.220000000000000000e+02
-2.150000000000000000e+02
-2.100000000000000000e+02
-2.010000000000000000e+02
-1.890000000000000000e+02
-1.790000000000000000e+02
-1.790000000000000000e+02
-1.820000000000000000e+02
-1.720000000000000000e+02
-1.620000000000000000e+02
-1.580000000000000000e+02
-1.550000000000000000e+02
-1.500000000000000000e+02
-1.460000000000000000e+02
-1.430000000000000000e+02
-1.390000000000000000e+02
-1.270000000000000000e+02
-1.220000000000000000e+02
-1.220000000000000000e+02
-1.220000000000000000e+02
-1.120000000000000000e+02
-1.030000000000000000e+02
-1.070000000000000000e+02
-1.070000000000000000e+02
-1.030000000000000000e+02
-9.100000000000000000e+01
-6.900000000000000000e+01
-6.900000000000000000e+01
-7.100000000000000000e+01
-5.500000000000000000e+01
-5.900000000000000000e+01
-8.300000000000000000e+01
-9.500000000000000000e+01
-9.300000000000000000e+01
-8.800000000000000000e+01
-8.600000000000000000e+01
-8.100000000000000000e+01
-8.600000000000000000e+01
-9.100000000000000000e+01
-7.900000000000000000e+01
-6.900000000000000000e+01
-6.400000000000000000e+01
-4.700000000000000000e+01
4.700000000000000000e+01
3.970000000000000000e+02
1.155000000000000000e+03
1.878000000000000000e+03
1.461000000000000000e+03
-1.550000000000000000e+02
-1.047000000000000000e+03
-5.030000000000000000e+02
-1.600000000000000000e+02
-3.470000000000000000e+02
-2.300000000000000000e+02
-6.700000000000000000e+01
-1.500000000000000000e+02
-1.840000000000000000e+02
-1.240000000000000000e+02
-1.220000000000000000e+02
-1.190000000000000000e+02
-9.100000000000000000e+01
-8.100000000000000000e+01
-6.400000000000000000e+01
-3.800000000000000000e+01
-2.300000000000000000e+01
-4.000000000000000000e+00
2.300000000000000000e+01
5.900000000000000000e+01
1.050000000000000000e+02
1.530000000000000000e+02
2.100000000000000000e+02
2.800000000000000000e+02
3.570000000000000000e+02
4.170000000000000000e+02
4.520000000000000000e+02
4.810000000000000000e+02
4.840000000000000000e+02
4.450000000000000000e+02
3.760000000000000000e+02
2.630000000000000000e+02
1.170000000000000000e+02
-2.600000000000000000e+01
-1.390000000000000000e+02
-2.220000000000000000e+02
-2.890000000000000000e+02
-3.330000000000000000e+02
-3.400000000000000000e+02
-3.520000000000000000e+02
-3.710000000000000000e+02
-3.730000000000000000e+02
-3.570000000000000000e+02
-3.470000000000000000e+02
-3.520000000000000000e+02
-3.420000000000000000e+02
-3.130000000000000000e+02
-3.010000000000000000e+02
-3.010000000000000000e+02
-2.940000000000000000e+02
-2.730000000000000000e+02
-2.540000000000000000e+02
-2.490000000000000000e+02
-2.370000000000000000e+02
-2.220000000000000000e+02
-2.200000000000000000e+02
-2.130000000000000000e+02
-1.980000000000000000e+02
-1.840000000000000000e+02
-1.770000000000000000e+02
-1.770000000000000000e+02
-1.720000000000000000e+02
-1.700000000000000000e+02
-1.700000000000000000e+02
-1.600000000000000000e+02
-1.500000000000000000e+02
-1.430000000000000000e+02
-1.460000000000000000e+02
-1.460000000000000000e+02
-1.360000000000000000e+02
-1.270000000000000000e+02
-1.220000000000000000e+02
-1.360000000000000000e+02
-1.620000000000000000e+02
-1.620000000000000000e+02
-1.620000000000000000e+02
-1.770000000000000000e+02
-1.580000000000000000e+02
-1.190000000000000000e+02
-1.100000000000000000e+02
-1.120000000000000000e+02
-1.000000000000000000e+02
-9.800000000000000000e+01
-1.170000000000000000e+02
-1.310000000000000000e+02
-1.290000000000000000e+02
-1.190000000000000000e+02
-1.120000000000000000e+02
-1.070000000000000000e+02
-1.000000000000000000e+02
-9.800000000000000000e+01
-1.030000000000000000e+02
-9.300000000000000000e+01
-7.400000000000000000e+01
-5.900000000000000000e+01
-2.000000000000000000e+00
2.200000000000000000e+02
8.220000000000000000e+02
1.658000000000000000e+03
1.735000000000000000e+03
3.520000000000000000e+02
-9.580000000000000000e+02
-6.830000000000000000e+02
-1.550000000000000000e+02
-3.230000000000000000e+02
-3.110000000000000000e+02
-7.900000000000000000e+01
-8.600000000000000000e+01
-1.270000000000000000e+02
-5.000000000000000000e+01
-2.600000000000000000e+01
-4.500000000000000000e+01
-1.600000000000000000e+01
2.300000000000000000e+01
2.800000000000000000e+01
3.100000000000000000e+01
6.400000000000000000e+01
1.050000000000000000e+02
1.310000000000000000e+02
1.580000000000000000e+02
2.030000000000000000e+02
2.580000000000000000e+02
3.090000000000000000e+02
3.710000000000000000e+02
4.480000000000000000e+02
5.150000000000000000e+02
5.580000000000000000e+02
5.720000000000000000e+02
5.700000000000000000e+02
5.440000000000000000e+02
4.720000000000000000e+02
3.570000000000000000e+02
2.130000000000000000e+02
5.900000000000000000e+01
-6.900000000000000000e+01
-1.600000000000000000e+02
-2.220000000000000000e+02
-2.610000000000000000e+02
-2.890000000000000000e+02
-3.160000000000000000e+02
-3.210000000000000000e+02
-3.110000000000000000e+02
-3.110000000000000000e+02
-3.060000000000000000e+02
-2.970000000000000000e+02
-3.090000000000000000e+02
-3.230000000000000000e+02
-3.010000000000000000e+02
-2.780000000000000000e+02
-2.750000000000000000e+02
-2.730000000000000000e+02
-2.510000000000000000e+02
-2.320000000000000000e+02
-2.300000000000000000e+02
-2.180000000000000000e+02
-1.980000000000000000e+02
-1.960000000000000000e+02
-1.960000000000000000e+02
-1.840000000000000000e+02
-1.740000000000000000e+02
-1.700000000000000000e+02
-1.670000000000000000e+02
-1.740000000000000000e+02
-1.890000000000000000e+02
-1.940000000000000000e+02
-1.910000000000000000e+02
-2.030000000000000000e+02
-2.100000000000000000e+02
-2.150000000000000000e+02
-2.340000000000000000e+02
-2.370000000000000000e+02
-2.200000000000000000e+02
-2.130000000000000000e+02
-2.080000000000000000e+02
-2.010000000000000000e+02
-1.790000000000000000e+02
-1.620000000000000000e+02
-1.600000000000000000e+02
-1.550000000000000000e+02
-1.550000000000000000e+02
-1.700000000000000000e+02
-1.860000000000000000e+02
-1.890000000000000000e+02
-1.720000000000000000e+02
-1.670000000000000000e+02
-1.720000000000000000e+02
-1.650000000000000000e+02
-1.600000000000000000e+02
-1.580000000000000000e+02
-1.480000000000000000e+02
-1.340000000000000000e+02
-1.150000000000000000e+02
-5.500000000000000000e+01
1.940000000000000000e+02
8.720000000000000000e+02
1.737000000000000000e+03
1.687000000000000000e+03
1.720000000000000000e+02
-1.047000000000000000e+03
-6.590000000000000000e+02
-1.860000000000000000e+02
-3.900000000000000000e+02
-3.350000000000000000e+02
-1.150000000000000000e+02
-1.720000000000000000e+02
-2.200000000000000000e+02
-1.310000000000000000e+02
-1.070000000000000000e+02
-1.270000000000000000e+02
-9.100000000000000000e+01
-5.700000000000000000e+01
-5.500000000000000000e+01
-3.800000000000000000e+01
-1.100000000000000000e+01
2.100000000000000000e+01
5.900000000000000000e+01
9.300000000000000000e+01
1.340000000000000000e+02
1.860000000000000000e+02
2.460000000000000000e+02
2.990000000000000000e+02
3.590000000000000000e+02
4.310000000000000000e+02
4.790000000000000000e+02
4.880000000000000000e+02
4.840000000000000000e+02
4.550000000000000000e+02
3.830000000000000000e+02
2.580000000000000000e+02
1.070000000000000000e+02
-2.800000000000000000e+01
-1.410000000000000000e+02
-2.320000000000000000e+02
-2.920000000000000000e+02
-3.180000000000000000e+02
-3.250000000000000000e+02
-3.280000000000000000e+02
-3.180000000000000000e+02
-3.010000000000000000e+02
-2.940000000000000000e+02
-2.890000000000000000e+02
-2.800000000000000000e+02
-2.680000000000000000e+02
-2.580000000000000000e+02
-2.490000000000000000e+02
-2.340000000000000000e+02
-2.220000000000000000e+02
-2.250000000000000000e+02
-2.220000000000000000e+02
-2.130000000000000000e+02
-2.060000000000000000e+02
-2.030000000000000000e+02
-2.030000000000000000e+02
-1.910000000000000000e+02
-1.820000000000000000e+02
-1.820000000000000000e+02
-1.740000000000000000e+02
-1.650000000000000000e+02
-1.670000000000000000e+02
-1.720000000000000000e+02
-1.670000000000000000e+02
-1.550000000000000000e+02
-1.550000000000000000e+02
-1.620000000000000000e+02
-1.700000000000000000e+02
-1.790000000000000000e+02
-1.770000000000000000e+02
-1.700000000000000000e+02
-1.700000000000000000e+02
-1.890000000000000000e+02
-2.200000000000000000e+02
-2.300000000000000000e+02
-2.250000000000000000e+02
-2.300000000000000000e+02
-2.320000000000000000e+02
-2.270000000000000000e+02
-2.250000000000000000e+02
-2.250000000000000000e+02
-2.150000000000000000e+02
-1.840000000000000000e+02
-1.620000000000000000e+02
-1.670000000000000000e+02
-1.700000000000000000e+02
-1.650000000000000000e+02
-1.700000000000000000e+02
-1.820000000000000000e+02
-1.960000000000000000e+02
-1.890000000000000000e+02
-1.770000000000000000e+02
-1.860000000000000000e+02
-2.060000000000000000e+02
-2.060000000000000000e+02
-1.890000000000000000e+02
-1.790000000000000000e+02
-1.890000000000000000e+02
-1.790000000000000000e+02
-1.340000000000000000e+02
5.000000000000000000e+01
6.130000000000000000e+02
1.495000000000000000e+03
1.787000000000000000e+03
5.820000000000000000e+02
-9.290000000000000000e+02
-9.080000000000000000e+02
-2.680000000000000000e+02
-3.400000000000000000e+02
-4.190000000000000000e+02
-1.840000000000000000e+02
-1.480000000000000000e+02
-2.130000000000000000e+02
-1.460000000000000000e+02
-9.800000000000000000e+01
-1.150000000000000000e+02
-1.000000000000000000e+02
-7.100000000000000000e+01
-5.500000000000000000e+01
-2.600000000000000000e+01
-2.000000000000000000e+00
1.400000000000000000e+01
4.300000000000000000e+01
8.100000000000000000e+01
1.190000000000000000e+02
1.670000000000000000e+02
2.300000000000000000e+02
2.970000000000000000e+02
3.540000000000000000e+02
4.190000000000000000e+02
4.810000000000000000e+02
5.100000000000000000e+02
4.980000000000000000e+02
4.670000000000000000e+02
4.170000000000000000e+02
3.180000000000000000e+02
1.740000000000000000e+02
1.600000000000000000e+01
-1.270000000000000000e+02
-2.320000000000000000e+02
-2.940000000000000000e+02
-3.280000000000000000e+02
-3.350000000000000000e+02
-3.350000000000000000e+02
-3.330000000000000000e+02
-3.230000000000000000e+02
-3.130000000000000000e+02
-3.040000000000000000e+02
-2.920000000000000000e+02
-2.780000000000000000e+02
-2.610000000000000000e+02
-2.540000000000000000e+02
-2.490000000000000000e+02
-2.340000000000000000e+02
-2.180000000000000000e+02
-2.080000000000000000e+02
-2.100000000000000000e+02
-2.100000000000000000e+02
-2.010000000000000000e+02
-1.960000000000000000e+02
-1.910000000000000000e+02
-1.790000000000000000e+02
-1.700000000000000000e+02
-1.720000000000000000e+02
-1.840000000000000000e+02
-1.790000000000000000e+02
-1.670000000000000000e+02
-1.700000000000000000e+02
-1.670000000000000000e+02
-1.620000000000000000e+02
-1.700000000000000000e+02
-1.860000000000000000e+02
-1.890000000000000000e+02
-1.740000000000000000e+02
-1.650000000000000000e+02
-1.720000000000000000e+02
-1.700000000000000000e+02
-1.620000000000000000e+02
-1.700000000000000000e+02
-1.740000000000000000e+02
-1.770000000000000000e+02
-1.790000000000000000e+02
-1.840000000000000000e+02
-1.840000000000000000e+02
-1.740000000000000000e+02
-1.720000000000000000e+02
-1.700000000000000000e+02
-1.700000000000000000e+02
-1.670000000000000000e+02
-1.600000000000000000e+02
-1.550000000000000000e+02
-1.530000000000000000e+02
-1.460000000000000000e+02
-1.410000000000000000e+02
-1.410000000000000000e+02
-1.430000000000000000e+02
-1.360000000000000000e+02
-1.030000000000000000e+02
-7.900000000000000000e+01
-9.500000000000000000e+01
-1.120000000000000000e+02
-8.300000000000000000e+01
-7.100000000000000000e+01
-1.100000000000000000e+02
-1.480000000000000000e+02
-1.650000000000000000e+02
-1.670000000000000000e+02
-1.580000000000000000e+02
-1.500000000000000000e+02
-1.430000000000000000e+02
-1.430000000000000000e+02
-1.430000000000000000e+02
-1.310000000000000000e+02
-1.170000000000000000e+02
-1.100000000000000000e+02
-5.700000000000000000e+01
1.670000000000000000e+02
7.760000000000000000e+02
1.641000000000000000e+03
1.855000000000000000e+03
6.080000000000000000e+02
-8.650000000000000000e+02
-8.020000000000000000e+02
-1.840000000000000000e+02
-2.820000000000000000e+02
-3.420000000000000000e+02
-1.030000000000000000e+02
-9.100000000000000000e+01
-1.670000000000000000e+02
-1.070000000000000000e+02
-6.400000000000000000e+01
-8.300000000000000000e+01
-8.100000000000000000e+01
-5.900000000000000000e+01
-4.000000000000000000e+01
-1.600000000000000000e+01
4.000000000000000000e+00
2.600000000000000000e+01
5.900000000000000000e+01
9.300000000000000000e+01
1.360000000000000000e+02
1.910000000000000000e+02
2.320000000000000000e+02
2.750000000000000000e+02
3.520000000000000000e+02
4.170000000000000000e+02
4.430000000000000000e+02
4.720000000000000000e+02
4.880000000000000000e+02
4.670000000000000000e+02
4.190000000000000000e+02
3.400000000000000000e+02
2.060000000000000000e+02
5.700000000000000000e+01
-6.700000000000000000e+01
-1.620000000000000000e+02
-2.420000000000000000e+02
-2.850000000000000000e+02
-2.920000000000000000e+02
-3.110000000000000000e+02
-3.420000000000000000e+02
-3.470000000000000000e+02
-3.300000000000000000e+02
-3.160000000000000000e+02
-3.060000000000000000e+02
-2.940000000000000000e+02
-2.920000000000000000e+02
-2.870000000000000000e+02
-2.750000000000000000e+02
-2.750000000000000000e+02
-2.820000000000000000e+02
-2.780000000000000000e+02
-2.730000000000000000e+02
-2.660000000000000000e+02
-2.420000000000000000e+02
-2.250000000000000000e+02
-2.250000000000000000e+02
-2.270000000000000000e+02
-2.150000000000000000e+02
-2.010000000000000000e+02
-1.980000000000000000e+02
-2.010000000000000000e+02
-1.910000000000000000e+02
-1.910000000000000000e+02
-2.100000000000000000e+02
-2.320000000000000000e+02
-2.340000000000000000e+02
-2.220000000000000000e+02
-2.200000000000000000e+02
-2.250000000000000000e+02
-2.220000000000000000e+02
-2.250000000000000000e+02
-2.340000000000000000e+02
-2.320000000000000000e+02
-2.100000000000000000e+02
-2.060000000000000000e+02
-2.150000000000000000e+02
-2.130000000000000000e+02
-1.980000000000000000e+02
-1.960000000000000000e+02
-1.890000000000000000e+02
-1.770000000000000000e+02
-1.790000000000000000e+02
-1.910000000000000000e+02
-1.770000000000000000e+02
-1.480000000000000000e+02
-1.190000000000000000e+02
-9.300000000000000000e+01
-1.070000000000000000e+02
-1.290000000000000000e+02
-9.800000000000000000e+01
-8.100000000000000000e+01
-1.120000000000000000e+02
-1.360000000000000000e+02
-1.360000000000000000e+02
-1.480000000000000000e+02
-1.620000000000000000e+02
-1.550000000000000000e+02
-1.390000000000000000e+02
-1.390000000000000000e+02
-1.480000000000000000e+02
-1.390000000000000000e+02
-1.170000000000000000e+02
-1.100000000000000000e+02
-7.100000000000000000e+01
1.550000000000000000e+02
7.620000000000000000e+02
1.567000000000000000e+03
1.668000000000000000e+03
3.730000000000000000e+02
-9.650000000000000000e+02
-7.760000000000000000e+02
-2.030000000000000000e+02
-3.130000000000000000e+02
-3.300000000000000000e+02
-1.240000000000000000e+02
-1.390000000000000000e+02
-1.820000000000000000e+02
-1.120000000000000000e+02
-9.500000000000000000e+01
-1.000000000000000000e+02
-6.200000000000000000e+01
-3.800000000000000000e+01
-4.000000000000000000e+01
-2.300000000000000000e+01
7.000000000000000000e+00
3.300000000000000000e+01
5.700000000000000000e+01
9.800000000000000000e+01
1.460000000000000000e+02
1.910000000000000000e+02
2.390000000000000000e+02
2.970000000000000000e+02
3.610000000000000000e+02
4.280000000000000000e+02
4.790000000000000000e+02
4.860000000000000000e+02
4.740000000000000000e+02
4.570000000000000000e+02
4.070000000000000000e+02
3.040000000000000000e+02
1.550000000000000000e+02
-2.000000000000000000e+00
-1.270000000000000000e+02
-2.080000000000000000e+02
-2.630000000000000000e+02
-3.010000000000000000e+02
-3.210000000000000000e+02
-3.250000000000000000e+02
-3.210000000000000000e+02
-3.160000000000000000e+02
-3.060000000000000000e+02
-2.890000000000000000e+02
-2.890000000000000000e+02
-2.920000000000000000e+02
-2.780000000000000000e+02
-2.580000000000000000e+02
-2.490000000000000000e+02
-2.390000000000000000e+02
-2.300000000000000000e+02
-2.250000000000000000e+02
-2.150000000000000000e+02
-2.060000000000000000e+02
-2.030000000000000000e+02
-1.960000000000000000e+02
-1.940000000000000000e+02
-2.060000000000000000e+02
-2.200000000000000000e+02
-2.270000000000000000e+02
-2.440000000000000000e+02
-2.580000000000000000e+02
-2.510000000000000000e+02
-2.440000000000000000e+02
-2.490000000000000000e+02
-2.420000000000000000e+02
-2.300000000000000000e+02
-2.320000000000000000e+02
-2.420000000000000000e+02
-2.340000000000000000e+02
-2.200000000000000000e+02
-2.130000000000000000e+02
-2.270000000000000000e+02
-2.460000000000000000e+02
-2.390000000000000000e+02
-2.250000000000000000e+02
-2.130000000000000000e+02
-1.790000000000000000e+02
-1.480000000000000000e+02
-1.530000000000000000e+02
-1.550000000000000000e+02
-1.550000000000000000e+02
-1.600000000000000000e+02
-1.700000000000000000e+02
-1.820000000000000000e+02
-1.740000000000000000e+02
-1.580000000000000000e+02
-1.600000000000000000e+02
-1.620000000000000000e+02
-1.500000000000000000e+02
-1.480000000000000000e+02
-1.600000000000000000e+02
-1.600000000000000000e+02
-1.480000000000000000e+02
-8.300000000000000000e+01
1.670000000000000000e+02
7.830000000000000000e+02
1.567000000000000000e+03
1.584000000000000000e+03
2.200000000000000000e+02
-1.032000000000000000e+03
-7.420000000000000000e+02
-2.060000000000000000e+02
-3.450000000000000000e+02
-3.230000000000000000e+02
-1.000000000000000000e+02
-1.220000000000000000e+02
-1.600000000000000000e+02
-8.600000000000000000e+01
-6.400000000000000000e+01
-7.600000000000000000e+01
-5.500000000000000000e+01
-3.300000000000000000e+01
-1.600000000000000000e+01
4.000000000000000000e+00
2.300000000000000000e+01
4.300000000000000000e+01
7.100000000000000000e+01
1.100000000000000000e+02
1.480000000000000000e+02
1.980000000000000000e+02
2.610000000000000000e+02
3.180000000000000000e+02
3.660000000000000000e+02
4.190000000000000000e+02
4.720000000000000000e+02
4.930000000000000000e+02
4.840000000000000000e+02
4.520000000000000000e+02
3.780000000000000000e+02
2.390000000000000000e+02
7.600000000000000000e+01
-5.900000000000000000e+01
-1.650000000000000000e+02
-2.540000000000000000e+02
-3.180000000000000000e+02
-3.450000000000000000e+02
-3.710000000000000000e+02
-4.000000000000000000e+02
-3.930000000000000000e+02
-3.730000000000000000e+02
-3.710000000000000000e+02
-3.640000000000000000e+02
-3.540000000000000000e+02
-3.420000000000000000e+02
-3.230000000000000000e+02
-3.130000000000000000e+02
-3.110000000000000000e+02
-2.940000000000000000e+02
-2.700000000000000000e+02
-2.630000000000000000e+02
-2.680000000000000000e+02
-2.630000000000000000e+02
-2.540000000000000000e+02
-2.660000000000000000e+02
-2.730000000000000000e+02
-2.630000000000000000e+02
-2.560000000000000000e+02
-2.610000000000000000e+02
-2.610000000000000000e+02
-2.460000000000000000e+02
-2.460000000000000000e+02
-2.540000000000000000e+02
-2.440000000000000000e+02
-2.300000000000000000e+02
-2.340000000000000000e+02
-2.440000000000000000e+02
-2.270000000000000000e+02
-2.030000000000000000e+02
-1.940000000000000000e+02
-1.820000000000000000e+02
-1.580000000000000000e+02
-1.410000000000000000e+02
-1.430000000000000000e+02
-1.580000000000000000e+02
-1.600000000000000000e+02
-1.620000000000000000e+02
-1.840000000000000000e+02
-1.860000000000000000e+02
-1.700000000000000000e+02
-1.620000000000000000e+02
-1.600000000000000000e+02
-1.550000000000000000e+02
-1.500000000000000000e+02
-1.460000000000000000e+02
-1.430000000000000000e+02
-1.430000000000000000e+02
-1.150000000000000000e+02
5.200000000000000000e+01
5.460000000000000000e+02
1.346000000000000000e+03
1.713000000000000000e+03
6.920000000000000000e+02
-8.140000000000000000e+02
-9.320000000000000000e+02
-2.870000000000000000e+02
-2.850000000000000000e+02
-3.760000000000000000e+02
-1.580000000000000000e+02
-1.000000000000000000e+02
-1.720000000000000000e+02
-1.410000000000000000e+02
-1.150000000000000000e+02
-1.430000000000000000e+02
-1.390000000000000000e+02
-1.100000000000000000e+02
-9.800000000000000000e+01
-8.100000000000000000e+01
-5.500000000000000000e+01
-2.800000000000000000e+01
2.000000000000000000e+00
4.000000000000000000e+01
8.300000000000000000e+01
1.220000000000000000e+02
1.670000000000000000e+02
2.390000000000000000e+02
3.110000000000000000e+02
3.640000000000000000e+02
4.070000000000000000e+02
4.240000000000000000e+02
4.140000000000000000e+02
3.900000000000000000e+02
3.400000000000000000e+02
2.420000000000000000e+02
1.070000000000000000e+02
-2.300000000000000000e+01
-1.270000000000000000e+02
-2.030000000000000000e+02
-2.630000000000000000e+02
-2.940000000000000000e+02
-2.940000000000000000e+02
-2.970000000000000000e+02
-3.010000000000000000e+02
-2.990000000000000000e+02
-2.990000000000000000e+02
-2.970000000000000000e+02
-2.870000000000000000e+02
-2.850000000000000000e+02
-2.780000000000000000e+02
-2.610000000000000000e+02
-2.490000000000000000e+02
-2.390000000000000000e+02
-2.270000000000000000e+02
-2.180000000000000000e+02
-2.060000000000000000e+02
-1.890000000000000000e+02
-1.790000000000000000e+02
-1.770000000000000000e+02
-1.720000000000000000e+02
-1.670000000000000000e+02
-1.620000000000000000e+02
-1.720000000000000000e+02
-1.840000000000000000e+02
-1.770000000000000000e+02
-1.700000000000000000e+02
-1.840000000000000000e+02
-1.910000000000000000e+02
-1.890000000000000000e+02
-1.940000000000000000e+02
-1.940000000000000000e+02
-1.960000000000000000e+02
-2.030000000000000000e+02
-2.010000000000000000e+02
-1.910000000000000000e+02
-1.860000000000000000e+02
-1.790000000000000000e+02
-1.700000000000000000e+02
-1.530000000000000000e+02
-1.500000000000000000e+02
-1.620000000000000000e+02
-1.670000000000000000e+02
-1.740000000000000000e+02
-1.890000000000000000e+02
-2.030000000000000000e+02
-2.080000000000000000e+02
-2.010000000000000000e+02
-1.890000000000000000e+02
-1.790000000000000000e+02
-1.790000000000000000e+02
-2.010000000000000000e+02
-2.060000000000000000e+02
-1.820000000000000000e+02
-1.670000000000000000e+02
-1.720000000000000000e+02
-1.070000000000000000e+02
1.700000000000000000e+02
8.220000000000000000e+02
1.579000000000000000e+03
1.469000000000000000e+03
5.200000000000000000e+01
-1.071000000000000000e+03
-6.990000000000000000e+02
-2.250000000000000000e+02
-3.760000000000000000e+02
-3.180000000000000000e+02
-1.120000000000000000e+02
-1.410000000000000000e+02
-1.670000000000000000e+02
-9.800000000000000000e+01
-8.800000000000000000e+01
-9.100000000000000000e+01
-5.000000000000000000e+01
-3.300000000000000000e+01
-3.100000000000000000e+01
-2.000000000000000000e+00
3.100000000000000000e+01
5.000000000000000000e+01
7.600000000000000000e+01
1.170000000000000000e+02
1.530000000000000000e+02
1.890000000000000000e+02
2.460000000000000000e+02
3.180000000000000000e+02
3.810000000000000000e+02
4.280000000000000000e+02
4.570000000000000000e+02
4.600000000000000000e+02
4.480000000000000000e+02
4.170000000000000000e+02
3.520000000000000000e+02
2.440000000000000000e+02
1.070000000000000000e+02
-1.600000000000000000e+01
-1.070000000000000000e+02
-1.720000000000000000e+02
-2.150000000000000000e+02
-2.490000000000000000e+02
-2.680000000000000000e+02
-2.610000000000000000e+02
-2.490000000000000000e+02
-2.440000000000000000e+02
-2.340000000000000000e+02
-2.270000000000000000e+02
-2.250000000000000000e+02
-2.270000000000000000e+02
-2.340000000000000000e+02
-2.300000000000000000e+02
-2.130000000000000000e+02
-2.080000000000000000e+02
-2.060000000000000000e+02
-1.860000000000000000e+02
-1.740000000000000000e+02
-1.650000000000000000e+02
-1.480000000000000000e+02
-1.410000000000000000e+02
-1.480000000000000000e+02
-1.530000000000000000e+02
-1.530000000000000000e+02
-1.550000000000000000e+02
-1.580000000000000000e+02
-1.650000000000000000e+02
-1.720000000000000000e+02
-1.720000000000000000e+02
-1.910000000000000000e+02
-2.030000000000000000e+02
-1.840000000000000000e+02
-1.740000000000000000e+02
-1.840000000000000000e+02
-1.840000000000000000e+02
-1.620000000000000000e+02
-1.480000000000000000e+02
-1.430000000000000000e+02
-1.310000000000000000e+02
-1.170000000000000000e+02
-1.050000000000000000e+02
-1.030000000000000000e+02
-1.150000000000000000e+02
-1.170000000000000000e+02
-1.220000000000000000e+02
-1.360000000000000000e+02
-1.360000000000000000e+02
-1.340000000000000000e+02
-1.480000000000000000e+02
-1.620000000000000000e+02
-1.620000000000000000e+02
-1.600000000000000000e+02
-1.600000000000000000e+02
-1.600000000000000000e+02
-1.480000000000000000e+02
-9.500000000000000000e+01
1.030000000000000000e+02
6.590000000000000000e+02
1.466000000000000000e+03
1.610000000000000000e+03
3.210000000000000000e+02
-1.025000000000000000e+03
-8.240000000000000000e+02
-2.560000000000000000e+02
-3.830000000000000000e+02
-3.880000000000000000e+02
-1.430000000000000000e+02
-1.390000000000000000e+02
-1.910000000000000000e+02
-1.220000000000000000e+02
-8.800000000000000000e+01
-9.800000000000000000e+01
-7.400000000000000000e+01
-5.000000000000000000e+01
-4.300000000000000000e+01
-2.100000000000000000e+01
2.000000000000000000e+00
1.100000000000000000e+01
2.300000000000000000e+01
6.200000000000000000e+01
1.100000000000000000e+02
1.500000000000000000e+02
1.980000000000000000e+02
2.660000000000000000e+02
3.330000000000000000e+02
3.950000000000000000e+02
4.400000000000000000e+02
4.430000000000000000e+02
4.140000000000000000e+02
3.850000000000000000e+02
3.330000000000000000e+02
2.250000000000000000e+02
8.300000000000000000e+01
-4.700000000000000000e+01
-1.430000000000000000e+02
-2.130000000000000000e+02
-2.660000000000000000e+02
-2.890000000000000000e+02
-2.940000000000000000e+02
-3.130000000000000000e+02
-3.280000000000000000e+02
-3.130000000000000000e+02
-3.010000000000000000e+02
-2.990000000000000000e+02
-2.890000000000000000e+02
-2.700000000000000000e+02
-2.560000000000000000e+02
-2.440000000000000000e+02
-2.300000000000000000e+02
-2.100000000000000000e+02
-1.910000000000000000e+02
-1.860000000000000000e+02
-1.840000000000000000e+02
-1.620000000000000000e+02
-1.500000000000000000e+02
-1.480000000000000000e+02
-1.410000000000000000e+02
-1.360000000000000000e+02
-1.390000000000000000e+02
-1.390000000000000000e+02
-1.390000000000000000e+02
-1.390000000000000000e+02
-1.360000000000000000e+02
-1.410000000000000000e+02
-1.340000000000000000e+02
-1.240000000000000000e+02
-1.220000000000000000e+02
-1.190000000000000000e+02
-1.100000000000000000e+02
-1.100000000000000000e+02
-1.000000000000000000e+02
-7.900000000000000000e+01
-5.500000000000000000e+01
-4.700000000000000000e+01
-7.100000000000000000e+01
-1.070000000000000000e+02
-1.120000000000000000e+02
-1.100000000000000000e+02
-1.220000000000000000e+02
-1.270000000000000000e+02
-1.190000000000000000e+02
-1.190000000000000000e+02
-1.290000000000000000e+02
-1.390000000000000000e+02
-1.460000000000000000e+02
-1.410000000000000000e+02
-1.310000000000000000e+02
-1.220000000000000000e+02
-4.000000000000000000e+01
2.680000000000000000e+02
9.770000000000000000e+02
1.747000000000000000e+03
1.459000000000000000e+03
-1.190000000000000000e+02
-1.090000000000000000e+03
-5.750000000000000000e+02
-2.200000000000000000e+02
-4.330000000000000000e+02
-3.250000000000000000e+02
-1.430000000000000000e+02
-2.080000000000000000e+02
-2.200000000000000000e+02
-1.460000000000000000e+02
-1.340000000000000000e+02
-1.390000000000000000e+02
-1.170000000000000000e+02
-1.030000000000000000e+02
-9.300000000000000000e+01
-6.700000000000000000e+01
-3.500000000000000000e+01
-1.400000000000000000e+01
1.400000000000000000e+01
5.500000000000000000e+01
8.800000000000000000e+01
1.220000000000000000e+02
1.820000000000000000e+02
2.560000000000000000e+02
3.090000000000000000e+02
3.540000000000000000e+02
4.050000000000000000e+02
4.240000000000000000e+02
3.970000000000000000e+02
3.450000000000000000e+02
2.610000000000000000e+02
1.290000000000000000e+02
-1.600000000000000000e+01
-1.410000000000000000e+02
-2.250000000000000000e+02
-2.820000000000000000e+02
-3.300000000000000000e+02
-3.520000000000000000e+02
-3.450000000000000000e+02
-3.300000000000000000e+02
-3.250000000000000000e+02
-3.210000000000000000e+02
-3.110000000000000000e+02
-2.990000000000000000e+02
-2.870000000000000000e+02
-2.680000000000000000e+02
-2.460000000000000000e+02
-2.440000000000000000e+02
-2.460000000000000000e+02
-2.220000000000000000e+02
-1.980000000000000000e+02
-1.910000000000000000e+02
-1.840000000000000000e+02
-1.720000000000000000e+02
-1.620000000000000000e+02
-1.670000000000000000e+02
-1.790000000000000000e+02
-1.770000000000000000e+02
-1.600000000000000000e+02
-1.620000000000000000e+02
-1.740000000000000000e+02
-1.700000000000000000e+02
-1.700000000000000000e+02
-1.790000000000000000e+02
-1.770000000000000000e+02
-1.700000000000000000e+02
-1.700000000000000000e+02
