-1.430000000000000000e+03
-1.572000000000000000e+03
-1.580000000000000000e+03
-1.544000000000000000e+03
-1.481000000000000000e+03
-1.339000000000000000e+03
-1.050000000000000000e+03
-6.110000000000000000e+02
-2.720000000000000000e+02
-2.360000000000000000e+02
-3.560000000000000000e+02
-5.010000000000000000e+02
-6.980000000000000000e+02
-8.450000000000000000e+02
-8.740000000000000000e+02
-8.430000000000000000e+02
-8.040000000000000000e+02
-7.940000000000000000e+02
-8.160000000000000000e+02
-8.310000000000000000e+02
-8.500000000000000000e+02
-8.810000000000000000e+02
-8.570000000000000000e+02
-7.970000000000000000e+02
-6.980000000000000000e+02
-4.360000000000000000e+02
7.700000000000000000e+01
4.520000000000000000e+02
1.900000000000000000e+02
-1.710000000000000000e+02
4.070000000000000000e+02
1.633000000000000000e+03
2.582000000000000000e+03
3.432000000000000000e+03
4.653000000000000000e+03
6.294000000000000000e+03
9.158000000000000000e+03
1.433500000000000000e+04
1.973000000000000000e+04
1.973000000000000000e+04
1.973000000000000000e+04
1.973000000000000000e+04
1.973000000000000000e+04
1.973000000000000000e+04
1.973000000000000000e+04
1.973000000000000000e+04
1.973000000000000000e+04
1.973000000000000000e+04
1.973000000000000000e+04
1.973000000000000000e+04
1.862200000000000000e+04
1.599400000000000000e+04
1.252800000000000000e+04
9.064000000000000000e+03
6.164000000000000000e+03
4.721000000000000000e+03
5.877000000000000000e+03
9.926000000000000000e+03
1.619900000000000000e+04
1.973000000000000000e+04
1.973000000000000000e+04
1.973000000000000000e+04
1.973000000000000000e+04
1.973000000000000000e+04
1.973000000000000000e+04
1.973000000000000000e+04
1.973000000000000000e+04
1.642500000000000000e+04
7.322000000000000000e+03
5.580000000000000000e+02
-5.735000000000000000e+03
-1.030200000000000000e+04
-1.239500000000000000e+04
-1.319000000000000000e+04
-1.325800000000000000e+04
-1.276200000000000000e+04
-1.219100000000000000e+04
-1.155200000000000000e+04
-1.037400000000000000e+04
-9.083000000000000000e+03
-8.214000000000000000e+03
-7.327000000000000000e+03
-6.263000000000000000e+03
-5.304000000000000000e+03
-4.410000000000000000e+03
-3.560000000000000000e+03
-2.755000000000000000e+03
-1.758000000000000000e+03
-5.780000000000000000e+02
6.600000000000000000e+02
2.143000000000000000e+03
3.697000000000000000e+03
4.735000000000000000e+03
5.378000000000000000e+03
6.000000000000000000e+03
6.354000000000000000e+03
6.328000000000000000e+03
6.108000000000000000e+03
5.619000000000000000e+03
4.779000000000000000e+03
3.697000000000000000e+03
2.411000000000000000e+03
9.580000000000000000e+02
-7.900000000000000000e+01
-2.040000000000000000e+02
1.580000000000000000e+02
6.840000000000000000e+02
1.936000000000000000e+03
4.087000000000000000e+03
6.272000000000000000e+03
7.633000000000000000e+03
7.787000000000000000e+03
6.942000000000000000e+03
6.190000000000000000e+03
6.776000000000000000e+03
7.773000000000000000e+03
6.906000000000000000e+03
4.902000000000000000e+03
4.492000000000000000e+03
5.612000000000000000e+03
5.843000000000000000e+03
4.413000000000000000e+03
2.606000000000000000e+03
8.160000000000000000e+02
-9.390000000000000000e+02
1.340000000000000000e+02
5.246000000000000000e+03
1.155000000000000000e+04
1.752600000000000000e+04
1.973000000000000000e+04
1.954000000000000000e+04
1.468400000000000000e+04
1.035800000000000000e+04
7.881000000000000000e+03
6.369000000000000000e+03
5.203000000000000000e+03
4.273000000000000000e+03
3.162000000000000000e+03
1.977000000000000000e+03
1.216000000000000000e+03
7.030000000000000000e+02
4.000000000000000000e+01
-6.640000000000000000e+02
-1.141000000000000000e+03
-1.466000000000000000e+03
-1.833000000000000000e+03
-2.170000000000000000e+03
-2.379000000000000000e+03
-2.575000000000000000e+03
-2.789000000000000000e+03
-2.907000000000000000e+03
-2.893000000000000000e+03
-2.883000000000000000e+03
-3.023000000000000000e+03
-3.165000000000000000e+03
-3.035000000000000000e+03
-2.449000000000000000e+03
-1.522000000000000000e+03
-6.550000000000000000e+02
-5.500000000000000000e+01
6.470000000000000000e+02
2.112000000000000000e+03
4.338000000000000000e+03
7.214000000000000000e+03
1.069500000000000000e+04
1.400200000000000000e+04
1.751200000000000000e+04
1.973000000000000000e+04
1.973000000000000000e+04
1.973000000000000000e+04
1.973000000000000000e+04
1.973000000000000000e+04
1.973000000000000000e+04
1.973000000000000000e+04
1.973000000000000000e+04
1.691200000000000000e+04
1.443300000000000000e+04
1.381900000000000000e+04
1.232800000000000000e+04
9.883000000000000000e+03
9.040000000000000000e+03
1.022700000000000000e+04
1.188700000000000000e+04
1.323900000000000000e+04
1.433500000000000000e+04
1.334900000000000000e+04
8.486000000000000000e+03
1.883000000000000000e+03
-4.121000000000000000e+03
-1.002300000000000000e+04
-1.487900000000000000e+04
-1.701600000000000000e+04
-1.761800000000000000e+04
-1.774800000000000000e+04
-1.702800000000000000e+04
-1.602800000000000000e+04
-1.528800000000000000e+04
-1.441900000000000000e+04
-1.352800000000000000e+04
-1.289200000000000000e+04
-1.209200000000000000e+04
-1.103000000000000000e+04
-1.002500000000000000e+04
-8.948000000000000000e+03
-7.624000000000000000e+03
-6.065000000000000000e+03
-4.680000000000000000e+03
-4.184000000000000000e+03
-4.104000000000000000e+03
-3.435000000000000000e+03
-2.555000000000000000e+03
-2.216000000000000000e+03
-2.302000000000000000e+03
-2.642000000000000000e+03
-3.273000000000000000e+03
-3.805000000000000000e+03
-4.068000000000000000e+03
-4.386000000000000000e+03
-4.403000000000000000e+03
-3.712000000000000000e+03
-2.818000000000000000e+03
-2.160000000000000000e+03
-1.570000000000000000e+03
-8.210000000000000000e+02
-3.660000000000000000e+02
-5.220000000000000000e+02
-4.880000000000000000e+02
-5.000000000000000000e+01
1.390000000000000000e+02
3.920000000000000000e+02
1.242000000000000000e+03
2.266000000000000000e+03
3.008000000000000000e+03
3.302000000000000000e+03
3.121000000000000000e+03
3.133000000000000000e+03
3.851000000000000000e+03
4.584000000000000000e+03
4.986000000000000000e+03
5.899000000000000000e+03
7.041000000000000000e+03
7.262000000000000000e+03
6.754000000000000000e+03
5.670000000000000000e+03
3.755000000000000000e+03
2.254000000000000000e+03
2.293000000000000000e+03
3.263000000000000000e+03
4.653000000000000000e+03
6.390000000000000000e+03
7.597000000000000000e+03
6.915000000000000000e+03
4.617000000000000000e+03
2.543000000000000000e+03
1.271000000000000000e+03
4.500000000000000000e+01
-1.334000000000000000e+03
-2.432000000000000000e+03
-3.203000000000000000e+03
-3.902000000000000000e+03
-4.422000000000000000e+03
-4.786000000000000000e+03
-5.200000000000000000e+03
-5.545000000000000000e+03
-5.805000000000000000e+03
-6.130000000000000000e+03
-6.438000000000000000e+03
-6.626000000000000000e+03
-6.771000000000000000e+03
-6.976000000000000000e+03
-7.214000000000000000e+03
-7.378000000000000000e+03
-7.493000000000000000e+03
-7.530000000000000000e+03
-7.448000000000000000e+03
-7.445000000000000000e+03
-7.561000000000000000e+03
-7.660000000000000000e+03
-7.790000000000000000e+03
-8.019000000000000000e+03
-8.264000000000000000e+03
-8.520000000000000000e+03
-8.758000000000000000e+03
-8.787000000000000000e+03
-8.662000000000000000e+03
-8.556000000000000000e+03
-8.202000000000000000e+03
-7.298000000000000000e+03
-5.668000000000000000e+03
-3.285000000000000000e+03
-8.860000000000000000e+02
1.252000000000000000e+03
3.659000000000000000e+03
5.993000000000000000e+03
7.802000000000000000e+03
9.449000000000000000e+03
1.054300000000000000e+04
1.033100000000000000e+04
9.782000000000000000e+03
9.158000000000000000e+03
7.214000000000000000e+03
5.080000000000000000e+03
4.280000000000000000e+03
3.921000000000000000e+03
3.618000000000000000e+03
3.656000000000000000e+03
3.704000000000000000e+03
4.201000000000000000e+03
5.528000000000000000e+03
6.217000000000000000e+03
5.282000000000000000e+03
3.391000000000000000e+03
3.030000000000000000e+02
-3.702000000000000000e+03
-7.366000000000000000e+03
-1.083700000000000000e+04
-1.369900000000000000e+04
-1.469400000000000000e+04
-1.443800000000000000e+04
-1.408900000000000000e+04
-1.360700000000000000e+04
-1.288900000000000000e+04
-1.208700000000000000e+04
-1.127100000000000000e+04
-1.058400000000000000e+04
-9.919000000000000000e+03
-9.131000000000000000e+03
-8.334000000000000000e+03
-7.544000000000000000e+03
-6.737000000000000000e+03
-5.896000000000000000e+03
-4.882000000000000000e+03
-3.594000000000000000e+03
-2.302000000000000000e+03
-1.112000000000000000e+03
5.290000000000000000e+02
2.507000000000000000e+03
3.960000000000000000e+03
4.815000000000000000e+03
5.451000000000000000e+03
5.550000000000000000e+03
4.740000000000000000e+03
3.866000000000000000e+03
3.940000000000000000e+03
4.256000000000000000e+03
4.010000000000000000e+03
3.897000000000000000e+03
4.073000000000000000e+03
4.030000000000000000e+03
3.909000000000000000e+03
3.673000000000000000e+03
3.184000000000000000e+03
3.076000000000000000e+03
3.844000000000000000e+03
5.075000000000000000e+03
6.446000000000000000e+03
7.746000000000000000e+03
8.455000000000000000e+03
8.630000000000000000e+03
8.835000000000000000e+03
9.274000000000000000e+03
9.486000000000000000e+03
8.606000000000000000e+03
6.646000000000000000e+03
5.366000000000000000e+03
5.456000000000000000e+03
4.995000000000000000e+03
3.218000000000000000e+03
1.332000000000000000e+03
-3.490000000000000000e+02
-1.691000000000000000e+03
-1.881000000000000000e+03
-1.057000000000000000e+03
1.300000000000000000e+02
1.298000000000000000e+03
1.931000000000000000e+03
1.710000000000000000e+03
7.750000000000000000e+02
-4.960000000000000000e+02
-1.731000000000000000e+03
-3.271000000000000000e+03
-3.410000000000000000e+03
-4.110000000000000000e+02
1.915000000000000000e+03
1.799000000000000000e+03
1.888000000000000000e+03
2.517000000000000000e+03
3.182000000000000000e+03
4.321000000000000000e+03
5.487000000000000000e+03
5.969000000000000000e+03
6.265000000000000000e+03
6.641000000000000000e+03
6.508000000000000000e+03
5.848000000000000000e+03
5.200000000000000000e+03
4.735000000000000000e+03
4.244000000000000000e+03
3.632000000000000000e+03
2.994000000000000000e+03
2.425000000000000000e+03
2.006000000000000000e+03
1.744000000000000000e+03
1.560000000000000000e+03
1.401000000000000000e+03
1.303000000000000000e+03
1.291000000000000000e+03
1.324000000000000000e+03
1.418000000000000000e+03
1.580000000000000000e+03
1.811000000000000000e+03
2.196000000000000000e+03
2.736000000000000000e+03
3.512000000000000000e+03
4.740000000000000000e+03
6.354000000000000000e+03
7.879000000000000000e+03
9.054000000000000000e+03
1.021300000000000000e+04
1.180800000000000000e+04
1.500200000000000000e+04
1.948700000000000000e+04
1.973000000000000000e+04
1.476600000000000000e+04
1.034100000000000000e+04
8.435000000000000000e+03
5.906000000000000000e+03
3.463000000000000000e+03
2.040000000000000000e+03
5.730000000000000000e+02
-9.440000000000000000e+02
-2.076000000000000000e+03
-3.068000000000000000e+03
-4.005000000000000000e+03
-4.675000000000000000e+03
-5.215000000000000000e+03
-5.841000000000000000e+03
-6.491000000000000000e+03
-7.188000000000000000e+03
-7.828000000000000000e+03
-8.240000000000000000e+03
-8.592000000000000000e+03
-8.939000000000000000e+03
-9.165000000000000000e+03
-9.421000000000000000e+03
-9.811000000000000000e+03
-1.015500000000000000e+04
-1.029300000000000000e+04
-1.036500000000000000e+04
-1.058900000000000000e+04
-1.082700000000000000e+04
-1.091600000000000000e+04
-1.095000000000000000e+04
-1.105400000000000000e+04
-1.114000000000000000e+04
-1.110700000000000000e+04
-1.108300000000000000e+04
-1.112100000000000000e+04
-1.116700000000000000e+04
-1.125600000000000000e+04
-1.135500000000000000e+04
-1.146100000000000000e+04
-1.165100000000000000e+04
-1.176900000000000000e+04
-1.169900000000000000e+04
-1.154800000000000000e+04
-1.139600000000000000e+04
-1.137900000000000000e+04
-1.153800000000000000e+04
-1.207000000000000000e+04
-1.413500000000000000e+04
-1.753600000000000000e+04
-1.940000000000000000e+04
-1.883000000000000000e+04
-1.764000000000000000e+04
-1.606900000000000000e+04
-1.354200000000000000e+04
-1.096500000000000000e+04
-9.093000000000000000e+03
-7.308000000000000000e+03
-5.217000000000000000e+03
-3.107000000000000000e+03
-1.122000000000000000e+03
7.610000000000000000e+02
2.640000000000000000e+03
4.302000000000000000e+03
5.444000000000000000e+03
5.665000000000000000e+03
4.562000000000000000e+03
2.379000000000000000e+03
-3.730000000000000000e+02
-3.186000000000000000e+03
-5.672000000000000000e+03
-7.643000000000000000e+03
-8.864000000000000000e+03
-9.360000000000000000e+03
-9.454000000000000000e+03
-9.278000000000000000e+03
-8.727000000000000000e+03
-7.546000000000000000e+03
-5.848000000000000000e+03
-4.126000000000000000e+03
-2.464000000000000000e+03
-8.790000000000000000e+02
5.700000000000000000e+02
2.163000000000000000e+03
3.697000000000000000e+03
4.485000000000000000e+03
4.249000000000000000e+03
3.227000000000000000e+03
1.772000000000000000e+03
3.010000000000000000e+02
-9.560000000000000000e+02
-2.001000000000000000e+03
-2.620000000000000000e+03
-2.750000000000000000e+03
-2.623000000000000000e+03
-2.283000000000000000e+03
-1.850000000000000000e+03
-1.621000000000000000e+03
-1.854000000000000000e+03
-2.628000000000000000e+03
-3.577000000000000000e+03
-4.302000000000000000e+03
-4.752000000000000000e+03
-4.947000000000000000e+03
-4.846000000000000000e+03
-4.475000000000000000e+03
-4.087000000000000000e+03
-4.003000000000000000e+03
-4.225000000000000000e+03
-4.516000000000000000e+03
-4.687000000000000000e+03
-4.557000000000000000e+03
-4.196000000000000000e+03
-3.793000000000000000e+03
-3.331000000000000000e+03
-2.770000000000000000e+03
-2.225000000000000000e+03
-1.898000000000000000e+03
-1.818000000000000000e+03
-2.001000000000000000e+03
-2.635000000000000000e+03
-3.632000000000000000e+03
-4.822000000000000000e+03
-6.335000000000000000e+03
-8.067000000000000000e+03
-1.003000000000000000e+04
-1.214000000000000000e+04
-1.322700000000000000e+04
-1.218300000000000000e+04
-8.958000000000000000e+03
-4.786000000000000000e+03
-1.093000000000000000e+03
1.599000000000000000e+03
3.837000000000000000e+03
6.920000000000000000e+03
1.037200000000000000e+04
1.276400000000000000e+04
1.457100000000000000e+04
1.805600000000000000e+04
1.973000000000000000e+04
1.973000000000000000e+04
1.973000000000000000e+04
1.973000000000000000e+04
1.973000000000000000e+04
1.973000000000000000e+04
1.973000000000000000e+04
1.973000000000000000e+04
1.973000000000000000e+04
1.973000000000000000e+04
1.973000000000000000e+04
1.973000000000000000e+04
1.973000000000000000e+04
1.973000000000000000e+04
1.973000000000000000e+04
1.966300000000000000e+04
1.973000000000000000e+04
1.973000000000000000e+04
1.973000000000000000e+04
1.973000000000000000e+04
1.973000000000000000e+04
1.973000000000000000e+04
1.973000000000000000e+04
1.973000000000000000e+04
1.973000000000000000e+04
1.973000000000000000e+04
1.967500000000000000e+04
1.942000000000000000e+04
1.872600000000000000e+04
1.719600000000000000e+04
1.529800000000000000e+04
1.367000000000000000e+04
1.244600000000000000e+04
1.144900000000000000e+04
1.048500000000000000e+04
9.601000000000000000e+03
9.411000000000000000e+03
1.003200000000000000e+04
1.005900000000000000e+04
8.399000000000000000e+03
5.802000000000000000e+03
3.594000000000000000e+03
2.139000000000000000e+03
1.018000000000000000e+03
-5.700000000000000000e+01
-1.062000000000000000e+03
-1.927000000000000000e+03
-2.642000000000000000e+03
-3.237000000000000000e+03
-3.716000000000000000e+03
-4.133000000000000000e+03
-4.552000000000000000e+03
-4.935000000000000000e+03
-5.246000000000000000e+03
-5.480000000000000000e+03
-5.651000000000000000e+03
-6.000000000000000000e+03
-6.633000000000000000e+03
-7.163000000000000000e+03
-7.503000000000000000e+03
-7.990000000000000000e+03
-8.642000000000000000e+03
-9.211000000000000000e+03
-9.758000000000000000e+03
-1.039600000000000000e+04
-1.083500000000000000e+04
-1.106600000000000000e+04
-1.153300000000000000e+04
-1.224900000000000000e+04
-1.286800000000000000e+04
-1.327200000000000000e+04
-1.363800000000000000e+04
-1.407000000000000000e+04
-1.435400000000000000e+04
-1.458500000000000000e+04
-1.554600000000000000e+04
-1.706600000000000000e+04
-1.767300000000000000e+04
-1.749300000000000000e+04
-1.790200000000000000e+04
-1.871100000000000000e+04
-1.920300000000000000e+04
-1.968200000000000000e+04
-1.973300000000000000e+04
-1.973300000000000000e+04
-1.973300000000000000e+04
-1.973300000000000000e+04
-1.973300000000000000e+04
-1.973300000000000000e+04
-1.960300000000000000e+04
-1.815700000000000000e+04
-1.671000000000000000e+04
-1.496300000000000000e+04
-1.318300000000000000e+04
-1.154000000000000000e+04
-9.996000000000000000e+03
-8.623000000000000000e+03
-7.465000000000000000e+03
-6.624000000000000000e+03
-6.116000000000000000e+03
-5.817000000000000000e+03
-5.687000000000000000e+03
-5.757000000000000000e+03
-5.947000000000000000e+03
-5.990000000000000000e+03
-5.860000000000000000e+03
-5.771000000000000000e+03
-5.562000000000000000e+03
-4.952000000000000000e+03
-4.046000000000000000e+03
-3.080000000000000000e+03
-2.271000000000000000e+03
-1.674000000000000000e+03
-1.233000000000000000e+03
-9.250000000000000000e+02
-4.930000000000000000e+02
3.300000000000000000e+01
2.910000000000000000e+02
2.980000000000000000e+02
2.310000000000000000e+02
-2.600000000000000000e+01
-6.910000000000000000e+02
-1.440000000000000000e+03
-1.862000000000000000e+03
-2.447000000000000000e+03
-3.394000000000000000e+03
-3.928000000000000000e+03
-3.914000000000000000e+03
-3.791000000000000000e+03
-3.502000000000000000e+03
-2.861000000000000000e+03
-2.054000000000000000e+03
-1.416000000000000000e+03
-1.136000000000000000e+03
-1.228000000000000000e+03
-1.534000000000000000e+03
-1.984000000000000000e+03
-2.760000000000000000e+03
-3.825000000000000000e+03
-4.921000000000000000e+03
-5.933000000000000000e+03
-6.836000000000000000e+03
-7.566000000000000000e+03
-8.050000000000000000e+03
-8.344000000000000000e+03
-8.541000000000000000e+03
-8.647000000000000000e+03
-8.674000000000000000e+03
-8.628000000000000000e+03
-8.539000000000000000e+03
-8.438000000000000000e+03
-8.211000000000000000e+03
-7.749000000000000000e+03
-7.125000000000000000e+03
-6.737000000000000000e+03
-7.036000000000000000e+03
-7.467000000000000000e+03
-6.988000000000000000e+03
-6.002000000000000000e+03
-5.525000000000000000e+03
-5.376000000000000000e+03
-5.227000000000000000e+03
-5.289000000000000000e+03
-5.492000000000000000e+03
-5.653000000000000000e+03
-5.880000000000000000e+03
-6.135000000000000000e+03
-6.265000000000000000e+03
-6.405000000000000000e+03
-6.544000000000000000e+03
-6.479000000000000000e+03
-6.376000000000000000e+03
-6.320000000000000000e+03
-6.149000000000000000e+03
-5.995000000000000000e+03
-5.829000000000000000e+03
-5.530000000000000000e+03
-5.292000000000000000e+03
-5.116000000000000000e+03
-4.771000000000000000e+03
-4.246000000000000000e+03
-3.620000000000000000e+03
-2.960000000000000000e+03
-2.488000000000000000e+03
-2.367000000000000000e+03
-2.394000000000000000e+03
-2.223000000000000000e+03
-1.789000000000000000e+03
-1.146000000000000000e+03
-4.280000000000000000e+02
1.080000000000000000e+02
3.850000000000000000e+02
4.690000000000000000e+02
2.360000000000000000e+02
-4.210000000000000000e+02
-1.132000000000000000e+03
-1.575000000000000000e+03
-2.037000000000000000e+03
-2.724000000000000000e+03
-3.215000000000000000e+03
-3.300000000000000000e+03
-3.338000000000000000e+03
-3.341000000000000000e+03
-3.018000000000000000e+03
-2.519000000000000000e+03
-2.021000000000000000e+03
-1.479000000000000000e+03
-1.098000000000000000e+03
-9.530000000000000000e+02
-6.640000000000000000e+02
-4.800000000000000000e+01
6.930000000000000000e+02
1.457000000000000000e+03
2.370000000000000000e+03
3.256000000000000000e+03
3.793000000000000000e+03
4.205000000000000000e+03
4.538000000000000000e+03
4.540000000000000000e+03
4.408000000000000000e+03
4.181000000000000000e+03
3.755000000000000000e+03
3.290000000000000000e+03
2.611000000000000000e+03
1.495000000000000000e+03
3.200000000000000000e+02
-7.290000000000000000e+02
-2.114000000000000000e+03
-3.740000000000000000e+03
-4.942000000000000000e+03
-5.752000000000000000e+03
-6.479000000000000000e+03
-6.879000000000000000e+03
-6.785000000000000000e+03
-6.686000000000000000e+03
-7.163000000000000000e+03
-8.163000000000000000e+03
-8.746000000000000000e+03
-8.269000000000000000e+03
-7.563000000000000000e+03
-7.226000000000000000e+03
-6.735000000000000000e+03
-6.104000000000000000e+03
-5.776000000000000000e+03
-5.523000000000000000e+03
-5.056000000000000000e+03
-4.620000000000000000e+03
-4.340000000000000000e+03
-4.017000000000000000e+03
-3.644000000000000000e+03
-3.244000000000000000e+03
-2.772000000000000000e+03
-2.266000000000000000e+03
-1.666000000000000000e+03
-8.840000000000000000e+02
8.400000000000000000e+01
1.305000000000000000e+03
2.447000000000000000e+03
2.941000000000000000e+03
3.044000000000000000e+03
3.148000000000000000e+03
3.158000000000000000e+03
3.158000000000000000e+03
3.350000000000000000e+03
3.786000000000000000e+03
4.193000000000000000e+03
4.225000000000000000e+03
4.239000000000000000e+03
4.786000000000000000e+03
5.752000000000000000e+03
6.988000000000000000e+03
8.582000000000000000e+03
1.071900000000000000e+04
1.400700000000000000e+04
1.904900000000000000e+04
1.973000000000000000e+04
1.973000000000000000e+04
1.973000000000000000e+04
1.973000000000000000e+04
1.973000000000000000e+04
1.973000000000000000e+04
1.973000000000000000e+04
1.973000000000000000e+04
1.973000000000000000e+04
1.973000000000000000e+04
1.973000000000000000e+04
1.973000000000000000e+04
1.973000000000000000e+04
1.973000000000000000e+04
1.973000000000000000e+04
1.973000000000000000e+04
1.973000000000000000e+04
1.973000000000000000e+04
1.973000000000000000e+04
1.662500000000000000e+04
1.339300000000000000e+04
1.066600000000000000e+04
8.317000000000000000e+03
5.480000000000000000e+03
2.042000000000000000e+03
-9.560000000000000000e+02
-3.307000000000000000e+03
-5.285000000000000000e+03
-6.662000000000000000e+03
-7.318000000000000000e+03
-7.751000000000000000e+03
-8.334000000000000000e+03
-8.919000000000000000e+03
-9.437000000000000000e+03
-9.996000000000000000e+03
-1.035000000000000000e+04
-1.024000000000000000e+04
-1.021100000000000000e+04
-1.095000000000000000e+04
-1.182500000000000000e+04
-1.182200000000000000e+04
-1.146800000000000000e+04
-1.152300000000000000e+04
-1.182500000000000000e+04
-1.220500000000000000e+04
-1.253000000000000000e+04
-1.288200000000000000e+04
-1.333700000000000000e+04
-1.339500000000000000e+04
-1.314000000000000000e+04
-1.316600000000000000e+04
-1.326300000000000000e+04
-1.309900000000000000e+04
-1.292300000000000000e+04
-1.283900000000000000e+04
-1.261700000000000000e+04
-1.230200000000000000e+04
-1.212100000000000000e+04
-1.192300000000000000e+04
-1.161700000000000000e+04
-1.137400000000000000e+04
-1.114800000000000000e+04
-1.093800000000000000e+04
-1.084400000000000000e+04
-1.083700000000000000e+04
-1.089000000000000000e+04
-1.105400000000000000e+04
-1.135700000000000000e+04
-1.182900000000000000e+04
-1.317800000000000000e+04
-1.660900000000000000e+04
-1.973300000000000000e+04
-1.973300000000000000e+04
-1.616300000000000000e+04
-1.030900000000000000e+04
-7.811000000000000000e+03
-6.829000000000000000e+03
-5.217000000000000000e+03
-4.663000000000000000e+03
-4.875000000000000000e+03
-4.665000000000000000e+03
-4.612000000000000000e+03
-4.714000000000000000e+03
-4.210000000000000000e+03
-3.497000000000000000e+03
-3.124000000000000000e+03
-2.693000000000000000e+03
-2.008000000000000000e+03
-1.428000000000000000e+03
-1.047000000000000000e+03
-7.900000000000000000e+02
-7.050000000000000000e+02
-8.140000000000000000e+02
-1.170000000000000000e+03
-1.842000000000000000e+03
-2.666000000000000000e+03
-3.444000000000000000e+03
-4.085000000000000000e+03
-4.526000000000000000e+03
-4.769000000000000000e+03
-4.930000000000000000e+03
-5.094000000000000000e+03
-5.205000000000000000e+03
-5.212000000000000000e+03
-5.195000000000000000e+03
-5.219000000000000000e+03
-5.229000000000000000e+03
-5.118000000000000000e+03
-4.928000000000000000e+03
-4.779000000000000000e+03
-4.579000000000000000e+03
-4.140000000000000000e+03
-3.620000000000000000e+03
-3.536000000000000000e+03
-4.164000000000000000e+03
-4.788000000000000000e+03
-4.591000000000000000e+03
-4.104000000000000000e+03
-4.049000000000000000e+03
-4.039000000000000000e+03
-3.868000000000000000e+03
-3.861000000000000000e+03
-3.837000000000000000e+03
-3.579000000000000000e+03
-3.379000000000000000e+03
-3.271000000000000000e+03
-2.986000000000000000e+03
-2.628000000000000000e+03
-2.384000000000000000e+03
-2.105000000000000000e+03
-1.613000000000000000e+03
-1.071000000000000000e+03
-5.970000000000000000e+02
-1.100000000000000000e+02
1.730000000000000000e+02
2.400000000000000000e+01
-3.150000000000000000e+02
-6.430000000000000000e+02
-9.850000000000000000e+02
-1.262000000000000000e+03
-1.387000000000000000e+03
-1.394000000000000000e+03
-1.385000000000000000e+03
-1.479000000000000000e+03
-1.734000000000000000e+03
-2.107000000000000000e+03
-2.481000000000000000e+03
-2.808000000000000000e+03
-3.160000000000000000e+03
-3.536000000000000000e+03
-3.904000000000000000e+03
-4.273000000000000000e+03
-4.588000000000000000e+03
-4.810000000000000000e+03
-5.051000000000000000e+03
-5.347000000000000000e+03
-5.564000000000000000e+03
-5.687000000000000000e+03
-5.877000000000000000e+03
-6.111000000000000000e+03
-6.176000000000000000e+03
-6.084000000000000000e+03
-6.022000000000000000e+03
-6.072000000000000000e+03
-6.128000000000000000e+03
-6.084000000000000000e+03
-6.031000000000000000e+03
-5.990000000000000000e+03
-5.877000000000000000e+03
-5.723000000000000000e+03
-5.600000000000000000e+03
-5.480000000000000000e+03
-5.369000000000000000e+03
-5.318000000000000000e+03
-5.268000000000000000e+03
-5.162000000000000000e+03
-5.017000000000000000e+03
-4.861000000000000000e+03
-4.764000000000000000e+03
-4.721000000000000000e+03
-4.615000000000000000e+03
-4.492000000000000000e+03
-4.453000000000000000e+03
-4.422000000000000000e+03
-4.323000000000000000e+03
-4.179000000000000000e+03
-3.885000000000000000e+03
-3.377000000000000000e+03
-3.117000000000000000e+03
-3.656000000000000000e+03
-4.663000000000000000e+03
-5.945000000000000000e+03
-7.758000000000000000e+03
-9.088000000000000000e+03
-8.614000000000000000e+03
-6.590000000000000000e+03
-4.374000000000000000e+03
-2.902000000000000000e+03
-1.792000000000000000e+03
-3.730000000000000000e+02
1.117000000000000000e+03
2.177000000000000000e+03
2.955000000000000000e+03
3.565000000000000000e+03
3.728000000000000000e+03
3.598000000000000000e+03
3.427000000000000000e+03
3.078000000000000000e+03
2.584000000000000000e+03
2.201000000000000000e+03
1.968000000000000000e+03
1.712000000000000000e+03
1.416000000000000000e+03
1.214000000000000000e+03
1.096000000000000000e+03
9.410000000000000000e+02
7.730000000000000000e+02
5.870000000000000000e+02
3.270000000000000000e+02
8.400000000000000000e+01
-1.080000000000000000e+02
-3.460000000000000000e+02
-6.190000000000000000e+02
-8.790000000000000000e+02
-1.132000000000000000e+03
-1.291000000000000000e+03
-1.385000000000000000e+03
-1.544000000000000000e+03
-1.729000000000000000e+03
-1.845000000000000000e+03
-1.900000000000000000e+03
-1.960000000000000000e+03
-2.016000000000000000e+03
-2.025000000000000000e+03
-2.013000000000000000e+03
-1.987000000000000000e+03
-1.931000000000000000e+03
-1.890000000000000000e+03
-1.888000000000000000e+03
-1.821000000000000000e+03
-1.650000000000000000e+03
-1.522000000000000000e+03
-1.438000000000000000e+03
-1.286000000000000000e+03
-1.134000000000000000e+03
-9.490000000000000000e+02
-5.990000000000000000e+02
-5.000000000000000000e+01
7.220000000000000000e+02
1.630000000000000000e+03
2.485000000000000000e+03
3.131000000000000000e+03
3.463000000000000000e+03
3.610000000000000000e+03
3.803000000000000000e+03
3.926000000000000000e+03
3.885000000000000000e+03
4.085000000000000000e+03
4.579000000000000000e+03
4.889000000000000000e+03
4.976000000000000000e+03
4.875000000000000000e+03
3.996000000000000000e+03
2.476000000000000000e+03
1.585000000000000000e+03
1.575000000000000000e+03
1.553000000000000000e+03
1.380000000000000000e+03
1.370000000000000000e+03
1.351000000000000000e+03
1.127000000000000000e+03
8.020000000000000000e+02
3.920000000000000000e+02
-2.310000000000000000e+02
-9.250000000000000000e+02
-1.404000000000000000e+03
-1.741000000000000000e+03
-2.127000000000000000e+03
-2.495000000000000000e+03
-2.770000000000000000e+03
-3.073000000000000000e+03
-3.415000000000000000e+03
-3.675000000000000000e+03
-3.861000000000000000e+03
-4.022000000000000000e+03
-4.104000000000000000e+03
-4.114000000000000000e+03
-4.136000000000000000e+03
-4.217000000000000000e+03
-4.338000000000000000e+03
-4.398000000000000000e+03
-4.335000000000000000e+03
-4.314000000000000000e+03
-4.388000000000000000e+03
-4.360000000000000000e+03
-4.227000000000000000e+03
-4.150000000000000000e+03
-4.095000000000000000e+03
-4.025000000000000000e+03
-3.955000000000000000e+03
-3.856000000000000000e+03
-3.731000000000000000e+03
-3.634000000000000000e+03
-3.577000000000000000e+03
-3.507000000000000000e+03
-3.420000000000000000e+03
-3.326000000000000000e+03
-3.227000000000000000e+03
-3.114000000000000000e+03
-2.999000000000000000e+03
-2.929000000000000000e+03
-2.844000000000000000e+03
-2.726000000000000000e+03
-2.632000000000000000e+03
-2.524000000000000000e+03
-2.348000000000000000e+03
-2.057000000000000000e+03
-1.500000000000000000e+03
-8.450000000000000000e+02
-4.500000000000000000e+02
-1.610000000000000000e+02
1.080000000000000000e+02
-1.400000000000000000e+01
-4.500000000000000000e+02
-7.990000000000000000e+02
-1.233000000000000000e+03
-1.941000000000000000e+03
-2.589000000000000000e+03
-2.936000000000000000e+03
-3.102000000000000000e+03
-3.191000000000000000e+03
-3.239000000000000000e+03
-3.232000000000000000e+03
-3.003000000000000000e+03
-2.517000000000000000e+03
-2.319000000000000000e+03
-2.787000000000000000e+03
-3.302000000000000000e+03
-3.225000000000000000e+03
-2.864000000000000000e+03
-2.787000000000000000e+03
-2.837000000000000000e+03
-2.777000000000000000e+03
-2.760000000000000000e+03
-2.806000000000000000e+03
-2.842000000000000000e+03
-2.885000000000000000e+03
-2.919000000000000000e+03
-2.931000000000000000e+03
-2.912000000000000000e+03
-2.878000000000000000e+03
-2.890000000000000000e+03
-2.941000000000000000e+03
-2.938000000000000000e+03
-2.876000000000000000e+03
-2.856000000000000000e+03
-2.878000000000000000e+03
-2.818000000000000000e+03
-2.738000000000000000e+03
-2.755000000000000000e+03
-2.753000000000000000e+03
-2.669000000000000000e+03
-2.563000000000000000e+03
-2.447000000000000000e+03
-2.298000000000000000e+03
-2.119000000000000000e+03
-1.996000000000000000e+03
-2.013000000000000000e+03
-2.110000000000000000e+03
-2.170000000000000000e+03
-2.199000000000000000e+03
-2.223000000000000000e+03
-2.180000000000000000e+03
-2.105000000000000000e+03
-2.028000000000000000e+03
-1.835000000000000000e+03
-1.563000000000000000e+03
-1.295000000000000000e+03
-9.610000000000000000e+02
-5.970000000000000000e+02
-1.990000000000000000e+02
2.310000000000000000e+02
3.830000000000000000e+02
2.020000000000000000e+02
7.000000000000000000e+00
-1.920000000000000000e+02
-5.010000000000000000e+02
-7.990000000000000000e+02
-1.004000000000000000e+03
-1.156000000000000000e+03
-1.291000000000000000e+03
-1.382000000000000000e+03
-1.430000000000000000e+03
-1.476000000000000000e+03
-1.536000000000000000e+03
-1.587000000000000000e+03
-1.621000000000000000e+03
-1.671000000000000000e+03
-1.739000000000000000e+03
-1.799000000000000000e+03
-1.917000000000000000e+03
-2.153000000000000000e+03
-2.416000000000000000e+03
-2.572000000000000000e+03
-2.652000000000000000e+03
-2.726000000000000000e+03
-2.750000000000000000e+03
-2.514000000000000000e+03
-1.965000000000000000e+03
-1.770000000000000000e+03
-2.563000000000000000e+03
-3.514000000000000000e+03
-3.471000000000000000e+03
-2.986000000000000000e+03
-2.929000000000000000e+03
-2.926000000000000000e+03
-2.750000000000000000e+03
-2.700000000000000000e+03
-2.681000000000000000e+03
-2.510000000000000000e+03
-2.394000000000000000e+03
-2.444000000000000000e+03
-2.459000000000000000e+03
-2.334000000000000000e+03
-2.233000000000000000e+03
-2.230000000000000000e+03
-2.182000000000000000e+03
-2.076000000000000000e+03
-1.989000000000000000e+03
-1.922000000000000000e+03
-1.869000000000000000e+03
-1.770000000000000000e+03
-1.642000000000000000e+03
-1.604000000000000000e+03
-1.613000000000000000e+03
-1.577000000000000000e+03
-1.575000000000000000e+03
-1.657000000000000000e+03
-1.719000000000000000e+03
-1.700000000000000000e+03
-1.570000000000000000e+03
-1.404000000000000000e+03
-1.288000000000000000e+03
-1.086000000000000000e+03
-6.600000000000000000e+02
-6.700000000000000000e+01
5.510000000000000000e+02
1.033000000000000000e+03
1.327000000000000000e+03
1.512000000000000000e+03
1.551000000000000000e+03
1.361000000000000000e+03
1.093000000000000000e+03
8.930000000000000000e+02
7.390000000000000000e+02
6.380000000000000000e+02
5.820000000000000000e+02
5.200000000000000000e+02
4.690000000000000000e+02
4.280000000000000000e+02
3.540000000000000000e+02
2.690000000000000000e+02
1.780000000000000000e+02
1.600000000000000000e+01
-2.210000000000000000e+02
-4.760000000000000000e+02
-7.100000000000000000e+02
-9.460000000000000000e+02
-1.202000000000000000e+03
-1.413000000000000000e+03
-1.551000000000000000e+03
-1.650000000000000000e+03
-1.744000000000000000e+03
-1.818000000000000000e+03
-1.866000000000000000e+03
-1.898000000000000000e+03
-1.919000000000000000e+03
-1.898000000000000000e+03
-1.770000000000000000e+03
-1.401000000000000000e+03
-8.720000000000000000e+02
-8.840000000000000000e+02
-1.739000000000000000e+03
-2.343000000000000000e+03
-1.948000000000000000e+03
-1.404000000000000000e+03
-1.269000000000000000e+03
-1.088000000000000000e+03
-7.580000000000000000e+02
-5.220000000000000000e+02
-3.340000000000000000e+02
-1.100000000000000000e+02
8.100000000000000000e+01
1.830000000000000000e+02
2.090000000000000000e+02
2.360000000000000000e+02
3.010000000000000000e+02
2.860000000000000000e+02
1.270000000000000000e+02
1.900000000000000000e+01
5.500000000000000000e+01
1.030000000000000000e+02
1.050000000000000000e+02
6.900000000000000000e+01
1.600000000000000000e+01
-2.100000000000000000e+01
-3.300000000000000000e+01
-1.900000000000000000e+01
-4.300000000000000000e+01
-1.390000000000000000e+02
-2.520000000000000000e+02
-3.750000000000000000e+02
-5.340000000000000000e+02
-6.760000000000000000e+02
-8.020000000000000000e+02
-9.290000000000000000e+02
-1.035000000000000000e+03
-1.127000000000000000e+03
-1.204000000000000000e+03
-1.288000000000000000e+03
-1.409000000000000000e+03
-1.510000000000000000e+03
-1.572000000000000000e+03
-1.666000000000000000e+03
-1.789000000000000000e+03
-1.883000000000000000e+03
-1.946000000000000000e+03
-2.001000000000000000e+03
-2.001000000000000000e+03
-1.948000000000000000e+03
-1.958000000000000000e+03
-2.018000000000000000e+03
-2.052000000000000000e+03
-2.071000000000000000e+03
-2.066000000000000000e+03
-1.960000000000000000e+03
-1.707000000000000000e+03
-1.295000000000000000e+03
-6.980000000000000000e+02
7.700000000000000000e+01
9.680000000000000000e+02
2.013000000000000000e+03
3.319000000000000000e+03
4.824000000000000000e+03
6.185000000000000000e+03
7.120000000000000000e+03
7.896000000000000000e+03
8.777000000000000000e+03
9.669000000000000000e+03
1.083900000000000000e+04
1.240000000000000000e+04
1.353700000000000000e+04
1.393700000000000000e+04
1.378800000000000000e+04
1.268000000000000000e+04
1.183200000000000000e+04
1.287700000000000000e+04
1.416400000000000000e+04
1.400500000000000000e+04
1.358800000000000000e+04
1.377600000000000000e+04
1.380500000000000000e+04
1.381200000000000000e+04
1.438500000000000000e+04
1.515100000000000000e+04
1.559200000000000000e+04
1.563100000000000000e+04
1.577300000000000000e+04
1.610000000000000000e+04
1.651900000000000000e+04
1.766100000000000000e+04
1.904900000000000000e+04
1.966800000000000000e+04
1.973000000000000000e+04
1.973000000000000000e+04
1.973000000000000000e+04
1.973000000000000000e+04
1.973000000000000000e+04
1.973000000000000000e+04
1.973000000000000000e+04
1.973000000000000000e+04
1.973000000000000000e+04
1.973000000000000000e+04
1.973000000000000000e+04
1.973000000000000000e+04
1.973000000000000000e+04
1.973000000000000000e+04
1.973000000000000000e+04
1.973000000000000000e+04
1.973000000000000000e+04
1.973000000000000000e+04
1.973000000000000000e+04
1.973000000000000000e+04
1.973000000000000000e+04
1.973000000000000000e+04
1.973000000000000000e+04
1.973000000000000000e+04
1.973000000000000000e+04
1.973000000000000000e+04
1.973000000000000000e+04
1.973000000000000000e+04
1.973000000000000000e+04
1.973000000000000000e+04
1.973000000000000000e+04
1.911400000000000000e+04
1.702300000000000000e+04
1.509300000000000000e+04
1.420200000000000000e+04
1.281700000000000000e+04
1.022000000000000000e+04
7.708000000000000000e+03
6.277000000000000000e+03
5.867000000000000000e+03
5.383000000000000000e+03
4.555000000000000000e+03
4.564000000000000000e+03
4.995000000000000000e+03
4.376000000000000000e+03
2.502000000000000000e+03
5.900000000000000000e+02
-3.630000000000000000e+02
-1.040000000000000000e+03
-2.049000000000000000e+03
-3.198000000000000000e+03
-4.812000000000000000e+03
-6.906000000000000000e+03
-8.483000000000000000e+03
-9.129000000000000000e+03
-9.582000000000000000e+03
-1.011900000000000000e+04
-1.043900000000000000e+04
-1.071200000000000000e+04
-1.102000000000000000e+04
-1.109000000000000000e+04
-1.106100000000000000e+04
-1.117400000000000000e+04
-1.125100000000000000e+04
-1.119300000000000000e+04
-1.114800000000000000e+04
-1.122000000000000000e+04
-1.130200000000000000e+04
-1.129200000000000000e+04
-1.129700000000000000e+04
-1.136700000000000000e+04
-1.143700000000000000e+04
-1.143400000000000000e+04
-1.144200000000000000e+04
-1.153600000000000000e+04
-1.155500000000000000e+04
-1.152600000000000000e+04
-1.159800000000000000e+04
-1.169000000000000000e+04
-1.175500000000000000e+04
-1.178600000000000000e+04
-1.179800000000000000e+04
-1.187500000000000000e+04
-1.194700000000000000e+04
-1.197600000000000000e+04
-1.205300000000000000e+04
-1.210600000000000000e+04
-1.205800000000000000e+04
-1.204900000000000000e+04
-1.215700000000000000e+04
-1.217600000000000000e+04
-1.205800000000000000e+04
-1.200500000000000000e+04
-1.197600000000000000e+04
-1.189900000000000000e+04
-1.181500000000000000e+04
-1.169700000000000000e+04
-1.161000000000000000e+04
-1.152100000000000000e+04
-1.128300000000000000e+04
-1.100100000000000000e+04
-1.078900000000000000e+04
-1.055300000000000000e+04
-1.025400000000000000e+04
-9.943000000000000000e+03
-9.633000000000000000e+03
-9.276000000000000000e+03
-8.813000000000000000e+03
-8.259000000000000000e+03
-7.657000000000000000e+03
-7.031000000000000000e+03
-6.361000000000000000e+03
-5.427000000000000000e+03
-4.220000000000000000e+03
-2.890000000000000000e+03
-1.071000000000000000e+03
9.700000000000000000e+02
2.435000000000000000e+03
3.803000000000000000e+03
5.848000000000000000e+03
8.423000000000000000e+03
1.111900000000000000e+04
1.327500000000000000e+04
1.428900000000000000e+04
1.493200000000000000e+04
1.622300000000000000e+04
1.701300000000000000e+04
1.627100000000000000e+04
1.568400000000000000e+04
1.605200000000000000e+04
1.583800000000000000e+04
1.478700000000000000e+04
1.364600000000000000e+04
1.191400000000000000e+04
8.919000000000000000e+03
5.104000000000000000e+03
1.763000000000000000e+03
-4.600000000000000000e+02
-2.083000000000000000e+03
-3.507000000000000000e+03
-4.665000000000000000e+03
-5.386000000000000000e+03
-5.798000000000000000e+03
-6.506000000000000000e+03
-7.602000000000000000e+03
-8.221000000000000000e+03
-8.076000000000000000e+03
-8.209000000000000000e+03
-8.840000000000000000e+03
-8.953000000000000000e+03
-8.623000000000000000e+03
-8.628000000000000000e+03
-8.686000000000000000e+03
-8.308000000000000000e+03
-7.645000000000000000e+03
-7.202000000000000000e+03
-7.474000000000000000e+03
-8.045000000000000000e+03
-8.182000000000000000e+03
-8.055000000000000000e+03
-7.821000000000000000e+03
-7.274000000000000000e+03
-6.701000000000000000e+03
-6.458000000000000000e+03
-6.371000000000000000e+03
-6.260000000000000000e+03
-6.231000000000000000e+03
-6.303000000000000000e+03
-6.383000000000000000e+03
-6.448000000000000000e+03
-6.487000000000000000e+03
-6.518000000000000000e+03
-6.583000000000000000e+03
-6.624000000000000000e+03
-6.624000000000000000e+03
-6.665000000000000000e+03
-6.754000000000000000e+03
-6.766000000000000000e+03
-6.672000000000000000e+03
-6.665000000000000000e+03
-6.749000000000000000e+03
-6.771000000000000000e+03
-6.764000000000000000e+03
-6.788000000000000000e+03
-6.809000000000000000e+03
-6.819000000000000000e+03
-6.800000000000000000e+03
-6.776000000000000000e+03
-6.766000000000000000e+03
-6.706000000000000000e+03
-6.626000000000000000e+03
-6.544000000000000000e+03
-6.263000000000000000e+03
-5.783000000000000000e+03
-5.692000000000000000e+03
-6.279000000000000000e+03
-6.817000000000000000e+03
-6.655000000000000000e+03
-6.265000000000000000e+03
-6.210000000000000000e+03
-6.193000000000000000e+03
-5.966000000000000000e+03
-5.822000000000000000e+03
-5.824000000000000000e+03
-5.745000000000000000e+03
-5.593000000000000000e+03
-5.528000000000000000e+03
-5.484000000000000000e+03
-5.383000000000000000e+03
-5.258000000000000000e+03
-5.135000000000000000e+03
-5.015000000000000000e+03
-4.829000000000000000e+03
-4.543000000000000000e+03
-4.304000000000000000e+03
-4.184000000000000000e+03
-4.051000000000000000e+03
-3.921000000000000000e+03
-3.822000000000000000e+03
-3.695000000000000000e+03
-3.569000000000000000e+03
-3.478000000000000000e+03
-3.382000000000000000e+03
-3.259000000000000000e+03
-3.124000000000000000e+03
-3.008000000000000000e+03
-2.914000000000000000e+03
-2.859000000000000000e+03
-2.806000000000000000e+03
-2.770000000000000000e+03
-2.859000000000000000e+03
-3.078000000000000000e+03
-3.384000000000000000e+03
-3.649000000000000000e+03
-3.673000000000000000e+03
-3.598000000000000000e+03
-3.589000000000000000e+03
-3.360000000000000000e+03
-2.799000000000000000e+03
-1.996000000000000000e+03
-7.030000000000000000e+02
9.870000000000000000e+02
2.835000000000000000e+03
5.306000000000000000e+03
8.922000000000000000e+03
1.363800000000000000e+04
1.973000000000000000e+04
1.973000000000000000e+04
1.973000000000000000e+04
1.973000000000000000e+04
1.973000000000000000e+04
1.973000000000000000e+04
1.973000000000000000e+04
1.973000000000000000e+04
1.973000000000000000e+04
1.973000000000000000e+04
1.973000000000000000e+04
1.973000000000000000e+04
1.973000000000000000e+04
1.973000000000000000e+04
1.973000000000000000e+04
1.973000000000000000e+04
1.973000000000000000e+04
1.973000000000000000e+04
1.925100000000000000e+04
1.613400000000000000e+04
1.295400000000000000e+04
9.553000000000000000e+03
6.884000000000000000e+03
4.475000000000000000e+03
2.331000000000000000e+03
2.670000000000000000e+02
-2.252000000000000000e+03
-5.005000000000000000e+03
-7.498000000000000000e+03
-9.204000000000000000e+03
-1.013100000000000000e+04
-1.076900000000000000e+04
-1.116000000000000000e+04
-1.124200000000000000e+04
-1.128700000000000000e+04
-1.141000000000000000e+04
-1.146600000000000000e+04
-1.144600000000000000e+04
-1.152300000000000000e+04
-1.160300000000000000e+04
-1.155500000000000000e+04
-1.153800000000000000e+04
-1.160100000000000000e+04
-1.166300000000000000e+04
-1.163400000000000000e+04
-1.150900000000000000e+04
-1.148500000000000000e+04
-1.149200000000000000e+04
-1.137900000000000000e+04
-1.131400000000000000e+04
-1.132100000000000000e+04
-1.127300000000000000e+04
-1.117400000000000000e+04
-1.109200000000000000e+04
-1.107500000000000000e+04
-1.104400000000000000e+04
-1.089500000000000000e+04
-1.069700000000000000e+04
-1.057700000000000000e+04
-1.045900000000000000e+04
-1.027300000000000000e+04
-1.021500000000000000e+04
-1.022000000000000000e+04
-9.948000000000000000e+03
-9.647000000000000000e+03
-9.534000000000000000e+03
-9.377000000000000000e+03
-9.199000000000000000e+03
-8.975000000000000000e+03
-8.606000000000000000e+03
-8.257000000000000000e+03
-7.867000000000000000e+03
-7.301000000000000000e+03
-6.737000000000000000e+03
-6.287000000000000000e+03
-5.870000000000000000e+03
-5.480000000000000000e+03
-5.150000000000000000e+03
-4.673000000000000000e+03
-3.714000000000000000e+03
-2.290000000000000000e+03
-7.130000000000000000e+02
9.460000000000000000e+02
3.064000000000000000e+03
6.002000000000000000e+03
9.319000000000000000e+03
1.211400000000000000e+04
1.438800000000000000e+04
1.642800000000000000e+04
1.757000000000000000e+04
1.776500000000000000e+04
1.753600000000000000e+04
1.685400000000000000e+04
1.743200000000000000e+04
1.973000000000000000e+04
1.973000000000000000e+04
1.973000000000000000e+04
1.973000000000000000e+04
1.973000000000000000e+04
1.973000000000000000e+04
1.973000000000000000e+04
1.973000000000000000e+04
1.959800000000000000e+04
1.973000000000000000e+04
1.973000000000000000e+04
1.973000000000000000e+04
1.605500000000000000e+04
8.857000000000000000e+03
2.690000000000000000e+02
-5.162000000000000000e+03
-7.318000000000000000e+03
-9.873000000000000000e+03
-1.273000000000000000e+04
-1.408600000000000000e+04
-1.477800000000000000e+04
-1.545000000000000000e+04
-1.540900000000000000e+04
-1.479200000000000000e+04
-1.427400000000000000e+04
-1.405500000000000000e+04
-1.403100000000000000e+04
-1.403100000000000000e+04
-1.398000000000000000e+04
-1.393700000000000000e+04
-1.398000000000000000e+04
-1.401200000000000000e+04
-1.396400000000000000e+04
-1.401400000000000000e+04
-1.399700000000000000e+04
-1.369400000000000000e+04
-1.350600000000000000e+04
-1.354900000000000000e+04
-1.344300000000000000e+04
-1.323100000000000000e+04
-1.307000000000000000e+04
-1.287500000000000000e+04
-1.269900000000000000e+04
-1.258100000000000000e+04
-1.239500000000000000e+04
-1.221000000000000000e+04
-1.208700000000000000e+04
-1.189200000000000000e+04
-1.164900000000000000e+04
-1.148500000000000000e+04
-1.135700000000000000e+04
-1.120500000000000000e+04
-1.100300000000000000e+04
-1.077400000000000000e+04
-1.059800000000000000e+04
-1.040800000000000000e+04
-1.013100000000000000e+04
-9.922000000000000000e+03
-9.794000000000000000e+03
-9.572000000000000000e+03
-9.281000000000000000e+03
-9.066000000000000000e+03
-8.903000000000000000e+03
-8.695000000000000000e+03
-8.450000000000000000e+03
-8.228000000000000000e+03
-8.057000000000000000e+03
-7.884000000000000000e+03
-7.691000000000000000e+03
-7.575000000000000000e+03
-7.431000000000000000e+03
-7.122000000000000000e+03
-6.862000000000000000e+03
-6.735000000000000000e+03
-6.547000000000000000e+03
-6.243000000000000000e+03
-5.870000000000000000e+03
-5.304000000000000000e+03
-4.639000000000000000e+03
-4.557000000000000000e+03
-5.224000000000000000e+03
-5.586000000000000000e+03
-5.118000000000000000e+03
-4.627000000000000000e+03
-4.494000000000000000e+03
-4.285000000000000000e+03
-3.866000000000000000e+03
-3.427000000000000000e+03
-3.112000000000000000e+03
-2.991000000000000000e+03
-2.955000000000000000e+03
-2.912000000000000000e+03
-2.991000000000000000e+03
-3.133000000000000000e+03
-3.085000000000000000e+03
-2.878000000000000000e+03
-2.659000000000000000e+03
-2.348000000000000000e+03
-1.799000000000000000e+03
-1.122000000000000000e+03
-4.960000000000000000e+02
-1.320000000000000000e+02
-2.310000000000000000e+02
-4.880000000000000000e+02
-6.230000000000000000e+02
-6.790000000000000000e+02
-1.950000000000000000e+02
1.324000000000000000e+03
3.331000000000000000e+03
4.632000000000000000e+03
4.574000000000000000e+03
3.825000000000000000e+03
3.697000000000000000e+03
4.027000000000000000e+03
3.767000000000000000e+03
3.406000000000000000e+03
3.678000000000000000e+03
3.948000000000000000e+03
3.606000000000000000e+03
2.907000000000000000e+03
1.917000000000000000e+03
5.320000000000000000e+02
-8.930000000000000000e+02
-2.290000000000000000e+03
-3.622000000000000000e+03
-4.461000000000000000e+03
-4.887000000000000000e+03
-5.340000000000000000e+03
-5.855000000000000000e+03
-6.369000000000000000e+03
-6.845000000000000000e+03
-7.228000000000000000e+03
-7.537000000000000000e+03
-7.809000000000000000e+03
-7.934000000000000000e+03
-7.915000000000000000e+03
-7.944000000000000000e+03
-7.956000000000000000e+03
-7.869000000000000000e+03
-7.872000000000000000e+03
-7.929000000000000000e+03
-7.888000000000000000e+03
-7.823000000000000000e+03
-7.766000000000000000e+03
-7.681000000000000000e+03
-7.551000000000000000e+03
-7.371000000000000000e+03
-7.224000000000000000e+03
-7.033000000000000000e+03
-6.655000000000000000e+03
-6.123000000000000000e+03
-5.475000000000000000e+03
-4.771000000000000000e+03
-3.952000000000000000e+03
-3.107000000000000000e+03
-3.066000000000000000e+03
-4.080000000000000000e+03
-4.658000000000000000e+03
-4.167000000000000000e+03
-3.933000000000000000e+03
-4.145000000000000000e+03
-3.921000000000000000e+03
-3.538000000000000000e+03
-3.403000000000000000e+03
-3.321000000000000000e+03
-3.256000000000000000e+03
-3.227000000000000000e+03
-3.227000000000000000e+03
-3.367000000000000000e+03
-3.524000000000000000e+03
-3.495000000000000000e+03
-3.316000000000000000e+03
-3.013000000000000000e+03
-2.620000000000000000e+03
-2.295000000000000000e+03
-2.021000000000000000e+03
-1.695000000000000000e+03
-1.276000000000000000e+03
-7.850000000000000000e+02
-5.030000000000000000e+02
-5.780000000000000000e+02
-5.460000000000000000e+02
2.400000000000000000e+01
8.500000000000000000e+02
1.597000000000000000e+03
2.541000000000000000e+03
3.601000000000000000e+03
4.174000000000000000e+03
4.263000000000000000e+03
3.885000000000000000e+03
2.770000000000000000e+03
1.445000000000000000e+03
3.830000000000000000e+02
-6.670000000000000000e+02
-1.613000000000000000e+03
-2.158000000000000000e+03
-2.526000000000000000e+03
-2.902000000000000000e+03
-3.107000000000000000e+03
-3.107000000000000000e+03
-3.073000000000000000e+03
-3.080000000000000000e+03
-3.090000000000000000e+03
-3.066000000000000000e+03
-3.018000000000000000e+03
-2.974000000000000000e+03
-3.032000000000000000e+03
-3.196000000000000000e+03
-3.290000000000000000e+03
-3.302000000000000000e+03
-3.324000000000000000e+03
-3.302000000000000000e+03
-3.223000000000000000e+03
-3.165000000000000000e+03
-3.150000000000000000e+03
-3.136000000000000000e+03
-3.105000000000000000e+03
-3.080000000000000000e+03
-3.066000000000000000e+03
-3.001000000000000000e+03
-2.864000000000000000e+03
-2.760000000000000000e+03
-2.741000000000000000e+03
-2.722000000000000000e+03
-2.695000000000000000e+03
-2.700000000000000000e+03
-2.608000000000000000e+03
-2.192000000000000000e+03
-1.515000000000000000e+03
-5.970000000000000000e+02
9.630000000000000000e+02
3.138000000000000000e+03
4.940000000000000000e+03
5.696000000000000000e+03
6.817000000000000000e+03
9.399000000000000000e+03
1.180300000000000000e+04
1.291300000000000000e+04
1.308400000000000000e+04
1.212100000000000000e+04
9.861000000000000000e+03
7.139000000000000000e+03
5.154000000000000000e+03
3.880000000000000000e+03
2.483000000000000000e+03
1.028000000000000000e+03
9.000000000000000000e+00
-7.290000000000000000e+02
-1.413000000000000000e+03
-1.905000000000000000e+03
-2.187000000000000000e+03
-2.396000000000000000e+03
-2.577000000000000000e+03
-2.724000000000000000e+03
-2.823000000000000000e+03
-2.890000000000000000e+03
-2.982000000000000000e+03
-3.035000000000000000e+03
-3.035000000000000000e+03
-3.073000000000000000e+03
-3.129000000000000000e+03
-3.194000000000000000e+03
-3.254000000000000000e+03
-3.249000000000000000e+03
-3.268000000000000000e+03
-3.345000000000000000e+03
-3.406000000000000000e+03
-3.430000000000000000e+03
-3.435000000000000000e+03
-3.449000000000000000e+03
-3.466000000000000000e+03
-3.442000000000000000e+03
-3.408000000000000000e+03
-3.403000000000000000e+03
-3.379000000000000000e+03
-3.288000000000000000e+03
-3.131000000000000000e+03
-2.941000000000000000e+03
-2.743000000000000000e+03
-2.596000000000000000e+03
-2.466000000000000000e+03
-2.247000000000000000e+03
-2.004000000000000000e+03
-1.731000000000000000e+03
-1.385000000000000000e+03
-9.940000000000000000e+02
-4.500000000000000000e+02
1.830000000000000000e+02
6.210000000000000000e+02
9.030000000000000000e+02
1.110000000000000000e+03
9.920000000000000000e+02
5.560000000000000000e+02
9.100000000000000000e+01
-3.700000000000000000e+02
-8.330000000000000000e+02
-1.163000000000000000e+03
-1.392000000000000000e+03
-1.621000000000000000e+03
-1.804000000000000000e+03
-1.960000000000000000e+03
-2.086000000000000000e+03
-2.139000000000000000e+03
-2.223000000000000000e+03
-2.317000000000000000e+03
-2.343000000000000000e+03
-2.375000000000000000e+03
-2.428000000000000000e+03
-2.449000000000000000e+03
-2.425000000000000000e+03
-2.322000000000000000e+03
-2.008000000000000000e+03
-1.548000000000000000e+03
-1.609000000000000000e+03
-2.611000000000000000e+03
-3.435000000000000000e+03
-3.066000000000000000e+03
-2.522000000000000000e+03
-2.599000000000000000e+03
-2.601000000000000000e+03
-2.341000000000000000e+03
-2.252000000000000000e+03
-2.264000000000000000e+03
-2.199000000000000000e+03
-2.134000000000000000e+03
-2.100000000000000000e+03
-2.083000000000000000e+03
-2.100000000000000000e+03
-2.090000000000000000e+03
-2.025000000000000000e+03
-2.004000000000000000e+03
-2.028000000000000000e+03
-2.001000000000000000e+03
-1.936000000000000000e+03
-1.837000000000000000e+03
-1.698000000000000000e+03
-1.609000000000000000e+03
-1.601000000000000000e+03
-1.551000000000000000e+03
-1.519000000000000000e+03
-1.575000000000000000e+03
-1.568000000000000000e+03
-1.524000000000000000e+03
-1.548000000000000000e+03
-1.551000000000000000e+03
-1.498000000000000000e+03
-1.495000000000000000e+03
-1.529000000000000000e+03
-1.524000000000000000e+03
-1.522000000000000000e+03
-1.534000000000000000e+03
-1.532000000000000000e+03
-1.522000000000000000e+03
-1.486000000000000000e+03
-1.421000000000000000e+03
-1.356000000000000000e+03
-1.281000000000000000e+03
-1.194000000000000000e+03
-1.096000000000000000e+03
-9.560000000000000000e+02
-7.800000000000000000e+02
-5.610000000000000000e+02
-3.320000000000000000e+02
-2.360000000000000000e+02
-2.070000000000000000e+02
-4.300000000000000000e+01
2.430000000000000000e+02
6.230000000000000000e+02
1.134000000000000000e+03
1.450000000000000000e+03
1.279000000000000000e+03
1.004000000000000000e+03
9.460000000000000000e+02
8.930000000000000000e+02
7.270000000000000000e+02
6.140000000000000000e+02
6.040000000000000000e+02
5.390000000000000000e+02
5.510000000000000000e+02
9.750000000000000000e+02
1.775000000000000000e+03
2.707000000000000000e+03
3.618000000000000000e+03
4.338000000000000000e+03
4.692000000000000000e+03
4.677000000000000000e+03
4.374000000000000000e+03
3.680000000000000000e+03
2.654000000000000000e+03
1.736000000000000000e+03
1.067000000000000000e+03
5.390000000000000000e+02
2.770000000000000000e+02
-8.400000000000000000e+01
-1.283000000000000000e+03
-2.782000000000000000e+03
-3.285000000000000000e+03
-3.006000000000000000e+03
-3.015000000000000000e+03
-3.223000000000000000e+03
-3.220000000000000000e+03
-3.225000000000000000e+03
-3.338000000000000000e+03
-3.384000000000000000e+03
-3.273000000000000000e+03
-3.117000000000000000e+03
-3.015000000000000000e+03
-2.933000000000000000e+03
-2.859000000000000000e+03
-2.818000000000000000e+03
-2.767000000000000000e+03
-2.678000000000000000e+03
-2.603000000000000000e+03
-2.565000000000000000e+03
-2.526000000000000000e+03
-2.457000000000000000e+03
-2.370000000000000000e+03
-2.305000000000000000e+03
-2.220000000000000000e+03
-2.131000000000000000e+03
-2.102000000000000000e+03
-2.102000000000000000e+03
-2.090000000000000000e+03
-2.078000000000000000e+03
-2.112000000000000000e+03
-2.196000000000000000e+03
-2.283000000000000000e+03
-2.317000000000000000e+03
-2.336000000000000000e+03
-2.399000000000000000e+03
-2.425000000000000000e+03
-2.365000000000000000e+03
-2.302000000000000000e+03
-2.180000000000000000e+03
-1.871000000000000000e+03
-1.505000000000000000e+03
-1.202000000000000000e+03
-1.052000000000000000e+03
-1.252000000000000000e+03
-1.611000000000000000e+03
-1.813000000000000000e+03
-1.917000000000000000e+03
-2.001000000000000000e+03
-2.040000000000000000e+03
-2.057000000000000000e+03
-2.064000000000000000e+03
-2.045000000000000000e+03
-2.023000000000000000e+03
-2.040000000000000000e+03
-2.047000000000000000e+03
-2.004000000000000000e+03
-1.982000000000000000e+03
-1.984000000000000000e+03
-1.996000000000000000e+03
-2.011000000000000000e+03
-1.994000000000000000e+03
-2.008000000000000000e+03
-2.045000000000000000e+03
-2.018000000000000000e+03
-2.013000000000000000e+03
-2.086000000000000000e+03
-2.141000000000000000e+03
-2.102000000000000000e+03
-2.001000000000000000e+03
-1.958000000000000000e+03
-1.939000000000000000e+03
-1.845000000000000000e+03
-1.741000000000000000e+03
-1.688000000000000000e+03
-1.662000000000000000e+03
-1.625000000000000000e+03
-1.604000000000000000e+03
-1.599000000000000000e+03
-1.556000000000000000e+03
-1.447000000000000000e+03
-1.132000000000000000e+03
-4.520000000000000000e+02
4.300000000000000000e+01
-5.080000000000000000e+02
-1.640000000000000000e+03
-1.700000000000000000e+03
-3.170000000000000000e+02
8.470000000000000000e+02
4.840000000000000000e+02
-6.330000000000000000e+02
-1.189000000000000000e+03
-1.221000000000000000e+03
-1.240000000000000000e+03
-1.214000000000000000e+03
-1.115000000000000000e+03
-1.088000000000000000e+03
-1.110000000000000000e+03
-1.117000000000000000e+03
-1.134000000000000000e+03
-1.158000000000000000e+03
-1.180000000000000000e+03
-1.189000000000000000e+03
-1.173000000000000000e+03
-1.170000000000000000e+03
-1.197000000000000000e+03
-1.199000000000000000e+03
-1.168000000000000000e+03
-1.132000000000000000e+03
-1.115000000000000000e+03
-1.124000000000000000e+03
-1.127000000000000000e+03
-1.115000000000000000e+03
-1.136000000000000000e+03
-1.173000000000000000e+03
-1.158000000000000000e+03
-1.146000000000000000e+03
-1.194000000000000000e+03
-1.221000000000000000e+03
-1.223000000000000000e+03
-1.247000000000000000e+03
-1.240000000000000000e+03
-1.199000000000000000e+03
-1.189000000000000000e+03
-1.189000000000000000e+03
-1.105000000000000000e+03
-9.650000000000000000e+02
-8.450000000000000000e+02
-6.860000000000000000e+02
-3.460000000000000000e+02
2.480000000000000000e+02
1.011000000000000000e+03
1.845000000000000000e+03
2.652000000000000000e+03
2.902000000000000000e+03
2.312000000000000000e+03
1.642000000000000000e+03
1.303000000000000000e+03
8.550000000000000000e+02
2.960000000000000000e+02
-6.500000000000000000e+01
-2.210000000000000000e+02
-1.580000000000000000e+02
1.050000000000000000e+02
3.250000000000000000e+02
3.950000000000000000e+02
3.750000000000000000e+02
2.380000000000000000e+02
4.300000000000000000e+01
-1.180000000000000000e+02
-1.630000000000000000e+02
-6.500000000000000000e+01
-3.800000000000000000e+01
-4.000000000000000000e+00
3.460000000000000000e+02
7.920000000000000000e+02
8.260000000000000000e+02
5.490000000000000000e+02
4.640000000000000000e+02
5.130000000000000000e+02
4.310000000000000000e+02
3.750000000000000000e+02
4.310000000000000000e+02
4.810000000000000000e+02
5.750000000000000000e+02
7.610000000000000000e+02
1.069000000000000000e+03
1.476000000000000000e+03
1.406000000000000000e+03
5.820000000000000000e+02
2.430000000000000000e+02
1.189000000000000000e+03
2.290000000000000000e+03
2.986000000000000000e+03
3.969000000000000000e+03
5.075000000000000000e+03
5.610000000000000000e+03
5.904000000000000000e+03
6.699000000000000000e+03
7.749000000000000000e+03
8.293000000000000000e+03
8.679000000000000000e+03
9.577000000000000000e+03
1.043000000000000000e+04
1.047300000000000000e+04
9.539000000000000000e+03
7.934000000000000000e+03
6.135000000000000000e+03
4.374000000000000000e+03
2.864000000000000000e+03
1.816000000000000000e+03
1.141000000000000000e+03
6.550000000000000000e+02
2.840000000000000000e+02
-3.100000000000000000e+01
-3.220000000000000000e+02
-5.490000000000000000e+02
-7.030000000000000000e+02
-8.570000000000000000e+02
-1.002000000000000000e+03
-1.064000000000000000e+03
-1.103000000000000000e+03
-1.202000000000000000e+03
-1.320000000000000000e+03
-1.435000000000000000e+03
-1.546000000000000000e+03
-1.618000000000000000e+03
-1.676000000000000000e+03
-1.758000000000000000e+03
-1.825000000000000000e+03
-1.862000000000000000e+03
-1.871000000000000000e+03
-1.883000000000000000e+03
-1.922000000000000000e+03
-1.936000000000000000e+03
-1.934000000000000000e+03
-1.948000000000000000e+03
-1.948000000000000000e+03
-1.927000000000000000e+03
-1.866000000000000000e+03
-1.683000000000000000e+03
-1.305000000000000000e+03
-9.730000000000000000e+02
-1.247000000000000000e+03
-2.117000000000000000e+03
-2.534000000000000000e+03
-2.220000000000000000e+03
-2.134000000000000000e+03
-2.312000000000000000e+03
-2.247000000000000000e+03
-2.151000000000000000e+03
-2.146000000000000000e+03
-2.016000000000000000e+03
-1.784000000000000000e+03
-1.609000000000000000e+03
-1.469000000000000000e+03
-1.341000000000000000e+03
-1.257000000000000000e+03
-1.108000000000000000e+03
-6.790000000000000000e+02
2.740000000000000000e+02
2.122000000000000000e+03
5.017000000000000000e+03
8.288000000000000000e+03
1.112600000000000000e+04
1.314900000000000000e+04
1.394000000000000000e+04
1.322400000000000000e+04
1.123200000000000000e+04
8.977000000000000000e+03
7.214000000000000000e+03
5.593000000000000000e+03
4.054000000000000000e+03
2.999000000000000000e+03
2.288000000000000000e+03
1.650000000000000000e+03
1.136000000000000000e+03
7.370000000000000000e+02
3.510000000000000000e+02
1.200000000000000000e+01
-2.520000000000000000e+02
-5.150000000000000000e+02
-8.020000000000000000e+02
-1.021000000000000000e+03
-1.216000000000000000e+03
-1.481000000000000000e+03
-1.763000000000000000e+03
-1.989000000000000000e+03
-2.155000000000000000e+03
-2.305000000000000000e+03
-2.430000000000000000e+03
-2.495000000000000000e+03
-2.575000000000000000e+03
-2.685000000000000000e+03
-2.714000000000000000e+03
-2.697000000000000000e+03
-2.731000000000000000e+03
-2.767000000000000000e+03
-2.746000000000000000e+03
-2.729000000000000000e+03
-2.750000000000000000e+03
-2.770000000000000000e+03
-2.767000000000000000e+03
-2.753000000000000000e+03
-2.750000000000000000e+03
-2.758000000000000000e+03
-2.743000000000000000e+03
-2.724000000000000000e+03
-2.726000000000000000e+03
-2.712000000000000000e+03
-2.630000000000000000e+03
-2.548000000000000000e+03
-2.514000000000000000e+03
-2.476000000000000000e+03
-2.430000000000000000e+03
-2.326000000000000000e+03
-2.204000000000000000e+03
-2.158000000000000000e+03
-2.143000000000000000e+03
-2.129000000000000000e+03
-2.151000000000000000e+03
-2.151000000000000000e+03
-2.076000000000000000e+03
-2.028000000000000000e+03
-2.021000000000000000e+03
-1.946000000000000000e+03
-1.823000000000000000e+03
-1.731000000000000000e+03
-1.654000000000000000e+03
-1.556000000000000000e+03
-1.474000000000000000e+03
-1.500000000000000000e+03
-1.568000000000000000e+03
-1.544000000000000000e+03
-1.493000000000000000e+03
-1.527000000000000000e+03
-1.570000000000000000e+03
-1.546000000000000000e+03
-1.493000000000000000e+03
-1.466000000000000000e+03
-1.471000000000000000e+03
-1.430000000000000000e+03
-1.370000000000000000e+03
-1.382000000000000000e+03
-1.438000000000000000e+03
-1.351000000000000000e+03
-9.870000000000000000e+02
-6.670000000000000000e+02
-9.990000000000000000e+02
-2.033000000000000000e+03
-2.695000000000000000e+03
-2.391000000000000000e+03
-2.163000000000000000e+03
-2.396000000000000000e+03
-2.432000000000000000e+03
-2.377000000000000000e+03
-2.483000000000000000e+03
-2.519000000000000000e+03
-2.507000000000000000e+03
-2.572000000000000000e+03
-2.608000000000000000e+03
-2.548000000000000000e+03
-2.497000000000000000e+03
-2.529000000000000000e+03
-2.514000000000000000e+03
-2.413000000000000000e+03
-2.372000000000000000e+03
-2.406000000000000000e+03
-2.394000000000000000e+03
-2.317000000000000000e+03
-2.288000000000000000e+03
-2.322000000000000000e+03
-2.310000000000000000e+03
-2.254000000000000000e+03
-2.201000000000000000e+03
-2.129000000000000000e+03
-2.025000000000000000e+03
-1.943000000000000000e+03
-1.907000000000000000e+03
-1.864000000000000000e+03
-1.770000000000000000e+03
-1.669000000000000000e+03
-1.585000000000000000e+03
-1.512000000000000000e+03
-1.491000000000000000e+03
-1.512000000000000000e+03
-1.541000000000000000e+03
-1.592000000000000000e+03
-1.650000000000000000e+03
-1.647000000000000000e+03
-1.616000000000000000e+03
-1.606000000000000000e+03
-1.568000000000000000e+03
-1.515000000000000000e+03
-1.466000000000000000e+03
-1.416000000000000000e+03
-1.399000000000000000e+03
-1.416000000000000000e+03
-1.404000000000000000e+03
-1.356000000000000000e+03
-1.322000000000000000e+03
-1.332000000000000000e+03
-1.336000000000000000e+03
-1.283000000000000000e+03
-1.226000000000000000e+03
-1.238000000000000000e+03
-1.233000000000000000e+03
-1.163000000000000000e+03
-1.117000000000000000e+03
-1.115000000000000000e+03
-1.079000000000000000e+03
-1.014000000000000000e+03
-9.900000000000000000e+02
-9.970000000000000000e+02
-9.870000000000000000e+02
-9.700000000000000000e+02
-9.730000000000000000e+02
-9.610000000000000000e+02
-9.220000000000000000e+02
-8.980000000000000000e+02
-8.960000000000000000e+02
-8.980000000000000000e+02
-9.050000000000000000e+02
-8.960000000000000000e+02
-8.960000000000000000e+02
-9.320000000000000000e+02
-9.340000000000000000e+02
-9.270000000000000000e+02
-9.530000000000000000e+02
-9.410000000000000000e+02
-8.910000000000000000e+02
-8.590000000000000000e+02
-8.110000000000000000e+02
-6.810000000000000000e+02
-4.040000000000000000e+02
7.700000000000000000e+01
4.140000000000000000e+02
-1.780000000000000000e+02
-1.385000000000000000e+03
-1.676000000000000000e+03
-1.165000000000000000e+03
-1.151000000000000000e+03
-1.344000000000000000e+03
-1.194000000000000000e+03
-1.149000000000000000e+03
-1.245000000000000000e+03
-1.156000000000000000e+03
-1.071000000000000000e+03
-1.134000000000000000e+03
-1.146000000000000000e+03
-1.098000000000000000e+03
-1.103000000000000000e+03
-1.115000000000000000e+03
-1.105000000000000000e+03
-1.093000000000000000e+03
-1.067000000000000000e+03
-1.052000000000000000e+03
-1.057000000000000000e+03
-1.033000000000000000e+03
-1.018000000000000000e+03
-1.033000000000000000e+03
-1.011000000000000000e+03
-9.630000000000000000e+02
-9.870000000000000000e+02
-1.023000000000000000e+03
-9.870000000000000000e+02
-9.630000000000000000e+02
-9.800000000000000000e+02
-9.870000000000000000e+02
-1.021000000000000000e+03
-1.055000000000000000e+03
-1.045000000000000000e+03
-1.067000000000000000e+03
-1.098000000000000000e+03
-1.110000000000000000e+03
-1.127000000000000000e+03
-1.117000000000000000e+03
-1.110000000000000000e+03
-1.117000000000000000e+03
-1.086000000000000000e+03
-1.055000000000000000e+03
-1.062000000000000000e+03
-1.057000000000000000e+03
-1.021000000000000000e+03
-9.900000000000000000e+02
-9.770000000000000000e+02
-9.630000000000000000e+02
-9.270000000000000000e+02
-8.860000000000000000e+02
-8.350000000000000000e+02
-7.990000000000000000e+02
-7.800000000000000000e+02
-7.200000000000000000e+02
-6.690000000000000000e+02
-6.740000000000000000e+02
-6.670000000000000000e+02
-6.430000000000000000e+02
-6.350000000000000000e+02
-6.160000000000000000e+02
-5.990000000000000000e+02
-6.040000000000000000e+02
-5.850000000000000000e+02
-5.580000000000000000e+02
-5.610000000000000000e+02
-5.630000000000000000e+02
-5.540000000000000000e+02
-5.560000000000000000e+02
-5.660000000000000000e+02
-5.730000000000000000e+02
-5.920000000000000000e+02
-6.160000000000000000e+02
-6.070000000000000000e+02
-5.940000000000000000e+02
-5.970000000000000000e+02
-6.070000000000000000e+02
-6.350000000000000000e+02
-6.280000000000000000e+02
-4.640000000000000000e+02
-4.500000000000000000e+01
4.090000000000000000e+02
1.800000000000000000e+02
-8.880000000000000000e+02
-1.517000000000000000e+03
-1.088000000000000000e+03
-7.460000000000000000e+02
-8.500000000000000000e+02
-7.970000000000000000e+02
-6.910000000000000000e+02
-7.170000000000000000e+02
-7.030000000000000000e+02
-6.840000000000000000e+02
-7.050000000000000000e+02
-6.470000000000000000e+02
-5.220000000000000000e+02
-3.970000000000000000e+02
-2.890000000000000000e+02
-2.480000000000000000e+02
-2.550000000000000000e+02
-2.430000000000000000e+02
-2.480000000000000000e+02
-2.670000000000000000e+02
-2.720000000000000000e+02
-2.960000000000000000e+02
-3.030000000000000000e+02
-2.960000000000000000e+02
-2.840000000000000000e+02
-3.100000000000000000e+02
-4.640000000000000000e+02
-6.020000000000000000e+02
-6.380000000000000000e+02
-7.730000000000000000e+02
-1.023000000000000000e+03
-1.197000000000000000e+03
-1.365000000000000000e+03
-1.671000000000000000e+03
-1.965000000000000000e+03
-2.208000000000000000e+03
-2.469000000000000000e+03
-2.485000000000000000e+03
-2.189000000000000000e+03
-2.057000000000000000e+03
-2.449000000000000000e+03
-4.095000000000000000e+03
-7.785000000000000000e+03
-1.103700000000000000e+04
-1.327700000000000000e+04
-1.577300000000000000e+04
-1.382400000000000000e+04
-8.120000000000000000e+03
-3.394000000000000000e+03
3.731000000000000000e+03
1.354200000000000000e+04
1.973000000000000000e+04
1.973000000000000000e+04
1.685700000000000000e+04
1.166800000000000000e+04
6.862000000000000000e+03
3.242000000000000000e+03
1.156000000000000000e+03
6.000000000000000000e+01
-7.030000000000000000e+02
-1.185000000000000000e+03
-1.387000000000000000e+03
-1.450000000000000000e+03
-1.469000000000000000e+03
-1.544000000000000000e+03
-1.630000000000000000e+03
-1.563000000000000000e+03
-1.423000000000000000e+03
-1.392000000000000000e+03
-1.462000000000000000e+03
-1.621000000000000000e+03
-1.787000000000000000e+03
-1.792000000000000000e+03
-1.736000000000000000e+03
-1.691000000000000000e+03
-1.532000000000000000e+03
-1.399000000000000000e+03
-1.375000000000000000e+03
-1.271000000000000000e+03
-1.158000000000000000e+03
-1.124000000000000000e+03
-1.093000000000000000e+03
-1.057000000000000000e+03
-1.274000000000000000e+03
-1.811000000000000000e+03
-1.980000000000000000e+03
-1.630000000000000000e+03
-1.857000000000000000e+03
-2.854000000000000000e+03
-3.271000000000000000e+03
-2.201000000000000000e+03
-3.100000000000000000e+01
2.136000000000000000e+03
3.553000000000000000e+03
4.555000000000000000e+03
5.525000000000000000e+03
6.048000000000000000e+03
6.116000000000000000e+03
6.253000000000000000e+03
6.525000000000000000e+03
6.706000000000000000e+03
6.699000000000000000e+03
6.595000000000000000e+03
6.542000000000000000e+03
6.523000000000000000e+03
6.559000000000000000e+03
6.677000000000000000e+03
6.802000000000000000e+03
7.327000000000000000e+03
9.093000000000000000e+03
1.283600000000000000e+04
1.844700000000000000e+04
1.973000000000000000e+04
1.973000000000000000e+04
1.973000000000000000e+04
1.973000000000000000e+04
1.973000000000000000e+04
1.973000000000000000e+04
1.973000000000000000e+04
1.973000000000000000e+04
1.973000000000000000e+04
1.854800000000000000e+04
1.238600000000000000e+04
7.212000000000000000e+03
2.799000000000000000e+03
-7.390000000000000000e+02
-3.059000000000000000e+03
-4.321000000000000000e+03
-5.044000000000000000e+03
-5.819000000000000000e+03
-6.838000000000000000e+03
-7.701000000000000000e+03
-8.137000000000000000e+03
-8.399000000000000000e+03
-8.570000000000000000e+03
-8.411000000000000000e+03
-8.050000000000000000e+03
-7.819000000000000000e+03
-7.770000000000000000e+03
-7.689000000000000000e+03
-7.433000000000000000e+03
-7.147000000000000000e+03
-6.908000000000000000e+03
-6.665000000000000000e+03
-6.450000000000000000e+03
-6.431000000000000000e+03
-6.706000000000000000e+03
-7.082000000000000000e+03
-7.325000000000000000e+03
-7.438000000000000000e+03
-7.421000000000000000e+03
-7.274000000000000000e+03
-7.120000000000000000e+03
-6.976000000000000000e+03
-6.759000000000000000e+03
-6.518000000000000000e+03
-6.323000000000000000e+03
-6.132000000000000000e+03
-5.973000000000000000e+03
-5.831000000000000000e+03
-5.617000000000000000e+03
-5.427000000000000000e+03
-5.325000000000000000e+03
-5.198000000000000000e+03
-5.065000000000000000e+03
-4.938000000000000000e+03
-4.617000000000000000e+03
-3.919000000000000000e+03
-2.736000000000000000e+03
-1.541000000000000000e+03
-1.346000000000000000e+03
-2.124000000000000000e+03
-2.577000000000000000e+03
-2.042000000000000000e+03
-1.252000000000000000e+03
-8.470000000000000000e+02
-4.210000000000000000e+02
5.250000000000000000e+02
2.307000000000000000e+03
5.378000000000000000e+03
9.816000000000000000e+03
1.502600000000000000e+04
1.973000000000000000e+04
1.973000000000000000e+04
1.973000000000000000e+04
1.973000000000000000e+04
1.973000000000000000e+04
1.547900000000000000e+04
1.287200000000000000e+04
1.079600000000000000e+04
1.034300000000000000e+04
1.259800000000000000e+04
1.645400000000000000e+04
1.973000000000000000e+04
1.973000000000000000e+04
1.973000000000000000e+04
1.973000000000000000e+04
1.973000000000000000e+04
1.973000000000000000e+04
1.973000000000000000e+04
1.973000000000000000e+04
1.702500000000000000e+04
1.028800000000000000e+04
6.838000000000000000e+03
4.967000000000000000e+03
3.466000000000000000e+03
2.644000000000000000e+03
2.257000000000000000e+03
1.710000000000000000e+03
1.129000000000000000e+03
5.900000000000000000e+02
-2.330000000000000000e+02
-9.170000000000000000e+02
-8.310000000000000000e+02
-4.160000000000000000e+02
-8.600000000000000000e+01
5.660000000000000000e+02
1.662000000000000000e+03
2.654000000000000000e+03
3.526000000000000000e+03
4.649000000000000000e+03
5.280000000000000000e+03
4.528000000000000000e+03
2.714000000000000000e+03
4.930000000000000000e+02
-1.915000000000000000e+03
-4.314000000000000000e+03
-6.344000000000000000e+03
-7.785000000000000000e+03
-8.628000000000000000e+03
-9.124000000000000000e+03
-9.522000000000000000e+03
-9.722000000000000000e+03
-9.664000000000000000e+03
-9.493000000000000000e+03
-9.254000000000000000e+03
-9.050000000000000000e+03
-9.021000000000000000e+03
-9.187000000000000000e+03
-9.546000000000000000e+03
-9.972000000000000000e+03
-1.030900000000000000e+04
-1.057700000000000000e+04
-1.081000000000000000e+04
-1.096500000000000000e+04
-1.105600000000000000e+04
-1.108500000000000000e+04
-1.097700000000000000e+04
-1.058200000000000000e+04
-1.002000000000000000e+04
-1.017500000000000000e+04
-1.119300000000000000e+04
-1.167500000000000000e+04
-1.114800000000000000e+04
-1.059400000000000000e+04
-1.032400000000000000e+04
-9.907000000000000000e+03
-9.425000000000000000e+03
-9.194000000000000000e+03
-9.050000000000000000e+03
-8.830000000000000000e+03
-8.628000000000000000e+03
-8.488000000000000000e+03
-8.291000000000000000e+03
-7.937000000000000000e+03
-7.616000000000000000e+03
-7.452000000000000000e+03
-7.250000000000000000e+03
-6.973000000000000000e+03
-6.829000000000000000e+03
-6.829000000000000000e+03
-6.780000000000000000e+03
-6.643000000000000000e+03
-6.540000000000000000e+03
-6.419000000000000000e+03
-6.173000000000000000e+03
-5.908000000000000000e+03
-5.643000000000000000e+03
-5.227000000000000000e+03
-4.610000000000000000e+03
-4.083000000000000000e+03
-3.957000000000000000e+03
-3.986000000000000000e+03
-3.897000000000000000e+03
-3.752000000000000000e+03
-3.519000000000000000e+03
-2.844000000000000000e+03
-1.226000000000000000e+03
1.717000000000000000e+03
6.537000000000000000e+03
1.430100000000000000e+04
1.973000000000000000e+04
1.973000000000000000e+04
1.973000000000000000e+04
1.973000000000000000e+04
1.550000000000000000e+04
1.056700000000000000e+04
7.749000000000000000e+03
6.024000000000000000e+03
5.995000000000000000e+03
7.178000000000000000e+03
8.132000000000000000e+03
1.096900000000000000e+04
1.713100000000000000e+04
1.973000000000000000e+04
1.973000000000000000e+04
1.973000000000000000e+04
1.973000000000000000e+04
1.973000000000000000e+04
1.261900000000000000e+04
7.416000000000000000e+03
4.497000000000000000e+03
2.396000000000000000e+03
1.214000000000000000e+03
5.870000000000000000e+02
-4.500000000000000000e+01
-5.390000000000000000e+02
-8.210000000000000000e+02
-1.124000000000000000e+03
-1.541000000000000000e+03
-1.989000000000000000e+03
-2.384000000000000000e+03
-2.753000000000000000e+03
-3.133000000000000000e+03
-3.483000000000000000e+03
-3.793000000000000000e+03
-4.049000000000000000e+03
-4.176000000000000000e+03
-4.179000000000000000e+03
-4.001000000000000000e+03
-3.543000000000000000e+03
-3.341000000000000000e+03
-3.928000000000000000e+03
-4.523000000000000000e+03
-4.384000000000000000e+03
-4.232000000000000000e+03
-4.622000000000000000e+03
-5.051000000000000000e+03
-5.191000000000000000e+03
-5.340000000000000000e+03
-5.742000000000000000e+03
-6.243000000000000000e+03
-6.612000000000000000e+03
-6.959000000000000000e+03
-7.450000000000000000e+03
-7.901000000000000000e+03
-8.132000000000000000e+03
-8.308000000000000000e+03
-8.556000000000000000e+03
-8.777000000000000000e+03
-8.862000000000000000e+03
-8.801000000000000000e+03
-8.712000000000000000e+03
-8.662000000000000000e+03
-8.512000000000000000e+03
-8.363000000000000000e+03
-8.385000000000000000e+03
-8.380000000000000000e+03
-8.303000000000000000e+03
-8.346000000000000000e+03
-8.394000000000000000e+03
-8.361000000000000000e+03
-8.337000000000000000e+03
-8.296000000000000000e+03
-8.209000000000000000e+03
-8.038000000000000000e+03
-7.737000000000000000e+03
-7.438000000000000000e+03
-7.248000000000000000e+03
-7.067000000000000000e+03
-6.843000000000000000e+03
-6.658000000000000000e+03
-6.499000000000000000e+03
-6.270000000000000000e+03
-6.048000000000000000e+03
-5.935000000000000000e+03
-5.867000000000000000e+03
-5.778000000000000000e+03
-5.641000000000000000e+03
-5.489000000000000000e+03
-5.369000000000000000e+03
-5.234000000000000000e+03
-5.176000000000000000e+03
-5.188000000000000000e+03
-4.957000000000000000e+03
-4.572000000000000000e+03
-4.347000000000000000e+03
-4.061000000000000000e+03
-3.625000000000000000e+03
-3.468000000000000000e+03
-3.601000000000000000e+03
-3.663000000000000000e+03
-3.678000000000000000e+03
-3.750000000000000000e+03
-3.827000000000000000e+03
-3.911000000000000000e+03
-3.979000000000000000e+03
-3.964000000000000000e+03
-3.844000000000000000e+03
-3.642000000000000000e+03
-3.418000000000000000e+03
-3.194000000000000000e+03
-2.929000000000000000e+03
-2.637000000000000000e+03
-2.343000000000000000e+03
-1.987000000000000000e+03
-1.676000000000000000e+03
-1.570000000000000000e+03
-1.529000000000000000e+03
-1.247000000000000000e+03
-6.040000000000000000e+02
-7.200000000000000000e+01
-2.280000000000000000e+02
-4.310000000000000000e+02
2.840000000000000000e+02
1.252000000000000000e+03
1.558000000000000000e+03
1.604000000000000000e+03
1.744000000000000000e+03
1.782000000000000000e+03
1.739000000000000000e+03
1.729000000000000000e+03
1.683000000000000000e+03
1.568000000000000000e+03
1.466000000000000000e+03
1.409000000000000000e+03
1.385000000000000000e+03
1.317000000000000000e+03
1.120000000000000000e+03
8.520000000000000000e+02
5.990000000000000000e+02
3.510000000000000000e+02
1.030000000000000000e+02
-1.420000000000000000e+02
-3.780000000000000000e+02
-5.970000000000000000e+02
-7.780000000000000000e+02
-8.880000000000000000e+02
-9.220000000000000000e+02
-8.960000000000000000e+02
-8.500000000000000000e+02
-7.610000000000000000e+02
-3.630000000000000000e+02
1.170000000000000000e+03
4.364000000000000000e+03
8.288000000000000000e+03
1.225800000000000000e+04
1.503600000000000000e+04
1.481900000000000000e+04
1.298100000000000000e+04
1.127300000000000000e+04
9.199000000000000000e+03
6.819000000000000000e+03
4.788000000000000000e+03
2.902000000000000000e+03
1.098000000000000000e+03
-2.910000000000000000e+02
-1.380000000000000000e+03
-2.302000000000000000e+03
-2.929000000000000000e+03
-3.290000000000000000e+03
-3.572000000000000000e+03
-3.801000000000000000e+03
-3.948000000000000000e+03
-4.049000000000000000e+03
-4.143000000000000000e+03
-4.208000000000000000e+03
-4.237000000000000000e+03
-4.270000000000000000e+03
-4.335000000000000000e+03
-4.398000000000000000e+03
-4.393000000000000000e+03
-4.343000000000000000e+03
-4.319000000000000000e+03
-4.241000000000000000e+03
-4.087000000000000000e+03
-4.008000000000000000e+03
-3.989000000000000000e+03
-3.924000000000000000e+03
-3.844000000000000000e+03
-3.796000000000000000e+03
-3.748000000000000000e+03
-3.673000000000000000e+03
-3.581000000000000000e+03
-3.480000000000000000e+03
-3.374000000000000000e+03
-3.283000000000000000e+03
-3.138000000000000000e+03
-2.806000000000000000e+03
-2.237000000000000000e+03
-1.772000000000000000e+03
-2.172000000000000000e+03
-3.329000000000000000e+03
-3.738000000000000000e+03
-3.025000000000000000e+03
-2.536000000000000000e+03
-2.570000000000000000e+03
-2.425000000000000000e+03
-2.249000000000000000e+03
-2.307000000000000000e+03
-2.319000000000000000e+03
-2.208000000000000000e+03
-2.095000000000000000e+03
-1.888000000000000000e+03
-1.291000000000000000e+03
-3.700000000000000000e+02
3.200000000000000000e+02
9.820000000000000000e+02
2.083000000000000000e+03
3.025000000000000000e+03
3.834000000000000000e+03
5.718000000000000000e+03
8.763000000000000000e+03
1.264800000000000000e+04
1.747800000000000000e+04
1.973000000000000000e+04
1.973000000000000000e+04
1.973000000000000000e+04
1.973000000000000000e+04
1.973000000000000000e+04
1.973000000000000000e+04
9.782000000000000000e+03
4.239000000000000000e+03
7.985000000000000000e+03
1.307200000000000000e+04
1.900800000000000000e+04
1.973000000000000000e+04
1.973000000000000000e+04
1.973000000000000000e+04
1.973000000000000000e+04
1.973000000000000000e+04
1.547900000000000000e+04
1.190200000000000000e+04
1.082500000000000000e+04
9.869000000000000000e+03
8.775000000000000000e+03
8.067000000000000000e+03
7.395000000000000000e+03
6.643000000000000000e+03
6.055000000000000000e+03
5.499000000000000000e+03
4.755000000000000000e+03
3.940000000000000000e+03
3.297000000000000000e+03
2.933000000000000000e+03
2.794000000000000000e+03
2.832000000000000000e+03
3.078000000000000000e+03
3.300000000000000000e+03
3.158000000000000000e+03
2.709000000000000000e+03
2.035000000000000000e+03
1.055000000000000000e+03
-1.560000000000000000e+02
-1.344000000000000000e+03
-2.290000000000000000e+03
-3.148000000000000000e+03
-4.157000000000000000e+03
-5.123000000000000000e+03
-5.737000000000000000e+03
-6.055000000000000000e+03
-6.287000000000000000e+03
-6.460000000000000000e+03
-6.556000000000000000e+03
-6.583000000000000000e+03
-6.402000000000000000e+03
-6.099000000000000000e+03
-6.328000000000000000e+03
-7.402000000000000000e+03
-8.312000000000000000e+03
-8.209000000000000000e+03
-7.848000000000000000e+03
-7.929000000000000000e+03
-8.016000000000000000e+03
-7.999000000000000000e+03
-8.197000000000000000e+03
-8.370000000000000000e+03
-8.363000000000000000e+03
-8.570000000000000000e+03
-8.992000000000000000e+03
-9.360000000000000000e+03
-9.763000000000000000e+03
-1.027800000000000000e+04
-1.074800000000000000e+04
-1.092800000000000000e+04
-1.071400000000000000e+04
-1.010500000000000000e+04
-9.071000000000000000e+03
-7.864000000000000000e+03
-7.009000000000000000e+03
-6.600000000000000000e+03
-6.296000000000000000e+03
-6.026000000000000000e+03
-5.899000000000000000e+03
-5.822000000000000000e+03
-5.735000000000000000e+03
-5.672000000000000000e+03
-5.602000000000000000e+03
-5.530000000000000000e+03
-5.431000000000000000e+03
-5.297000000000000000e+03
-5.224000000000000000e+03
-5.200000000000000000e+03
-5.109000000000000000e+03
-4.969000000000000000e+03
-4.889000000000000000e+03
-4.868000000000000000e+03
-4.853000000000000000e+03
-4.851000000000000000e+03
-4.800000000000000000e+03
-4.668000000000000000e+03
-4.538000000000000000e+03
-4.441000000000000000e+03
-4.400000000000000000e+03
-4.396000000000000000e+03
-4.220000000000000000e+03
-3.748000000000000000e+03
-2.970000000000000000e+03
-1.931000000000000000e+03
-8.020000000000000000e+02
2.360000000000000000e+02
1.115000000000000000e+03
1.705000000000000000e+03
1.659000000000000000e+03
1.144000000000000000e+03
6.070000000000000000e+02
3.270000000000000000e+02
5.560000000000000000e+02
8.670000000000000000e+02
1.110000000000000000e+03
1.806000000000000000e+03
2.676000000000000000e+03
3.213000000000000000e+03
3.471000000000000000e+03
3.656000000000000000e+03
4.104000000000000000e+03
4.916000000000000000e+03
5.781000000000000000e+03
6.624000000000000000e+03
7.616000000000000000e+03
8.235000000000000000e+03
7.607000000000000000e+03
6.255000000000000000e+03
5.097000000000000000e+03
3.526000000000000000e+03
1.700000000000000000e+03
1.120000000000000000e+03
1.522000000000000000e+03
1.594000000000000000e+03
1.459000000000000000e+03
1.534000000000000000e+03
1.503000000000000000e+03
1.206000000000000000e+03
8.880000000000000000e+02
6.380000000000000000e+02
3.460000000000000000e+02
1.030000000000000000e+02
-7.400000000000000000e+01
-2.930000000000000000e+02
-4.980000000000000000e+02
-6.380000000000000000e+02
-7.870000000000000000e+02
-9.560000000000000000e+02
-1.120000000000000000e+03
-1.269000000000000000e+03
-1.332000000000000000e+03
-1.317000000000000000e+03
-1.351000000000000000e+03
-1.430000000000000000e+03
-1.464000000000000000e+03
-1.500000000000000000e+03
-1.621000000000000000e+03
-1.768000000000000000e+03
-1.927000000000000000e+03
-2.127000000000000000e+03
-2.324000000000000000e+03
-2.534000000000000000e+03
-2.770000000000000000e+03
-2.924000000000000000e+03
-2.984000000000000000e+03
-3.030000000000000000e+03
-3.073000000000000000e+03
-3.097000000000000000e+03
-3.112000000000000000e+03
-3.145000000000000000e+03
-3.206000000000000000e+03
-3.300000000000000000e+03
-3.391000000000000000e+03
-3.413000000000000000e+03
-3.329000000000000000e+03
-3.119000000000000000e+03
-2.750000000000000000e+03
-2.278000000000000000e+03
-1.837000000000000000e+03
-1.551000000000000000e+03
-1.469000000000000000e+03
-1.481000000000000000e+03
-1.447000000000000000e+03
-1.346000000000000000e+03
-1.223000000000000000e+03
-1.230000000000000000e+03
-1.332000000000000000e+03
-1.344000000000000000e+03
-1.406000000000000000e+03
-1.719000000000000000e+03
-2.141000000000000000e+03
-2.514000000000000000e+03
-2.852000000000000000e+03
-3.155000000000000000e+03
-3.427000000000000000e+03
-3.745000000000000000e+03
-4.075000000000000000e+03
-4.345000000000000000e+03
-4.535000000000000000e+03
-4.608000000000000000e+03
-4.656000000000000000e+03
-4.697000000000000000e+03
-4.509000000000000000e+03
-3.974000000000000000e+03
-3.384000000000000000e+03
-3.418000000000000000e+03
-4.352000000000000000e+03
-5.205000000000000000e+03
-5.022000000000000000e+03
-4.458000000000000000e+03
-4.292000000000000000e+03
-4.114000000000000000e+03
-3.712000000000000000e+03
-3.454000000000000000e+03
-3.336000000000000000e+03
-3.213000000000000000e+03
-3.184000000000000000e+03
-3.218000000000000000e+03
-3.213000000000000000e+03
-3.208000000000000000e+03
-3.198000000000000000e+03
-3.124000000000000000e+03
-3.020000000000000000e+03
-2.970000000000000000e+03
-2.962000000000000000e+03
-2.960000000000000000e+03
-2.989000000000000000e+03
-3.047000000000000000e+03
-3.076000000000000000e+03
-3.068000000000000000e+03
-3.083000000000000000e+03
-3.126000000000000000e+03
-3.133000000000000000e+03
-3.092000000000000000e+03
-3.064000000000000000e+03
-3.042000000000000000e+03
-3.015000000000000000e+03
-3.003000000000000000e+03
-2.979000000000000000e+03
-2.950000000000000000e+03
-2.941000000000000000e+03
-2.938000000000000000e+03
-2.953000000000000000e+03
-2.991000000000000000e+03
-3.006000000000000000e+03
-2.967000000000000000e+03
-2.933000000000000000e+03
-2.924000000000000000e+03
-2.885000000000000000e+03
-2.825000000000000000e+03
-2.787000000000000000e+03
-2.782000000000000000e+03
-2.789000000000000000e+03
-2.767000000000000000e+03
-2.765000000000000000e+03
-2.803000000000000000e+03
-2.801000000000000000e+03
-2.758000000000000000e+03
-2.736000000000000000e+03
-2.717000000000000000e+03
-2.688000000000000000e+03
-2.661000000000000000e+03
-2.666000000000000000e+03
-2.697000000000000000e+03
-2.681000000000000000e+03
-2.654000000000000000e+03
-2.688000000000000000e+03
-2.734000000000000000e+03
-2.738000000000000000e+03
-2.729000000000000000e+03
-2.743000000000000000e+03
-2.767000000000000000e+03
-2.765000000000000000e+03
-2.791000000000000000e+03
-2.866000000000000000e+03
-2.907000000000000000e+03
-2.890000000000000000e+03
-2.827000000000000000e+03
-2.565000000000000000e+03
-1.936000000000000000e+03
-1.428000000000000000e+03
-1.874000000000000000e+03
-3.114000000000000000e+03
-3.774000000000000000e+03
-3.331000000000000000e+03
-2.982000000000000000e+03
-3.121000000000000000e+03
-3.020000000000000000e+03
-2.794000000000000000e+03
-2.796000000000000000e+03
-2.784000000000000000e+03
-2.676000000000000000e+03
-2.608000000000000000e+03
-2.526000000000000000e+03
-2.411000000000000000e+03
-2.338000000000000000e+03
-2.295000000000000000e+03
-2.254000000000000000e+03
-2.196000000000000000e+03
-2.122000000000000000e+03
-2.069000000000000000e+03
-2.042000000000000000e+03
-2.016000000000000000e+03
-1.984000000000000000e+03
-1.953000000000000000e+03
-1.915000000000000000e+03
-1.859000000000000000e+03
-1.794000000000000000e+03
-1.741000000000000000e+03
-1.724000000000000000e+03
-1.703000000000000000e+03
-1.659000000000000000e+03
-1.650000000000000000e+03
-1.662000000000000000e+03
-1.638000000000000000e+03
-1.592000000000000000e+03
-1.551000000000000000e+03
-1.519000000000000000e+03
-1.483000000000000000e+03
-1.430000000000000000e+03
-1.380000000000000000e+03
-1.363000000000000000e+03
-1.348000000000000000e+03
-1.315000000000000000e+03
-1.291000000000000000e+03
-1.274000000000000000e+03
-1.233000000000000000e+03
-1.209000000000000000e+03
-1.228000000000000000e+03
-1.204000000000000000e+03
-1.149000000000000000e+03
-1.112000000000000000e+03
-1.081000000000000000e+03
-1.052000000000000000e+03
-1.016000000000000000e+03
-9.750000000000000000e+02
-9.490000000000000000e+02
-9.120000000000000000e+02
-8.470000000000000000e+02
-7.850000000000000000e+02
-7.580000000000000000e+02
-7.440000000000000000e+02
-7.050000000000000000e+02
-6.670000000000000000e+02
-6.570000000000000000e+02
-6.690000000000000000e+02
-6.450000000000000000e+02
-5.870000000000000000e+02
-5.560000000000000000e+02
-5.370000000000000000e+02
-4.910000000000000000e+02
-4.550000000000000000e+02
-4.570000000000000000e+02
-4.620000000000000000e+02
-4.310000000000000000e+02
-2.810000000000000000e+02
1.800000000000000000e+02
9.080000000000000000e+02
1.158000000000000000e+03
2.890000000000000000e+02
-9.490000000000000000e+02
-1.165000000000000000e+03
-6.140000000000000000e+02
-5.010000000000000000e+02
-6.280000000000000000e+02
-4.640000000000000000e+02
-3.540000000000000000e+02
-4.070000000000000000e+02
-3.950000000000000000e+02
-3.580000000000000000e+02
-3.510000000000000000e+02
-3.200000000000000000e+02
-2.840000000000000000e+02
-2.860000000000000000e+02
-2.930000000000000000e+02
-2.960000000000000000e+02
-2.960000000000000000e+02
-2.770000000000000000e+02
-2.430000000000000000e+02
-2.110000000000000000e+02
-1.920000000000000000e+02
-1.660000000000000000e+02
-1.440000000000000000e+02
-1.460000000000000000e+02
-1.630000000000000000e+02
-1.970000000000000000e+02
-2.310000000000000000e+02
-2.840000000000000000e+02
-3.920000000000000000e+02
-4.910000000000000000e+02
-5.340000000000000000e+02
-5.920000000000000000e+02
-6.670000000000000000e+02
-7.200000000000000000e+02
-7.580000000000000000e+02
-7.660000000000000000e+02
-7.390000000000000000e+02
-7.220000000000000000e+02
-7.100000000000000000e+02
-7.000000000000000000e+02
-6.960000000000000000e+02
-6.760000000000000000e+02
-6.520000000000000000e+02
-6.470000000000000000e+02
-6.620000000000000000e+02
-6.740000000000000000e+02
-6.860000000000000000e+02
-7.050000000000000000e+02
-7.150000000000000000e+02
-7.050000000000000000e+02
-7.100000000000000000e+02
-7.340000000000000000e+02
-7.560000000000000000e+02
-7.560000000000000000e+02
-7.610000000000000000e+02
-7.610000000000000000e+02
-7.320000000000000000e+02
-7.100000000000000000e+02
-7.270000000000000000e+02
-7.220000000000000000e+02
-7.000000000000000000e+02
-7.000000000000000000e+02
-7.130000000000000000e+02
-7.000000000000000000e+02
-6.640000000000000000e+02
-6.090000000000000000e+02
-5.490000000000000000e+02
-4.430000000000000000e+02
-2.500000000000000000e+02
-3.300000000000000000e+01
1.270000000000000000e+02
2.600000000000000000e+02
4.330000000000000000e+02
8.160000000000000000e+02
1.568000000000000000e+03
2.201000000000000000e+03
1.847000000000000000e+03
7.000000000000000000e+02
2.260000000000000000e+02
8.720000000000000000e+02
1.363000000000000000e+03
1.329000000000000000e+03
1.464000000000000000e+03
1.691000000000000000e+03
1.756000000000000000e+03
1.772000000000000000e+03
1.734000000000000000e+03
1.850000000000000000e+03
2.522000000000000000e+03
3.695000000000000000e+03
5.034000000000000000e+03
6.359000000000000000e+03
7.272000000000000000e+03
7.197000000000000000e+03
6.144000000000000000e+03
4.718000000000000000e+03
3.497000000000000000e+03
2.618000000000000000e+03
1.881000000000000000e+03
1.214000000000000000e+03
6.550000000000000000e+02
1.870000000000000000e+02
-2.110000000000000000e+02
-5.870000000000000000e+02
-9.750000000000000000e+02
-1.341000000000000000e+03
-1.647000000000000000e+03
-1.910000000000000000e+03
-2.127000000000000000e+03
-2.295000000000000000e+03
-2.406000000000000000e+03
-2.457000000000000000e+03
-2.442000000000000000e+03
-2.382000000000000000e+03
-2.307000000000000000e+03
-2.218000000000000000e+03
-2.141000000000000000e+03
-2.139000000000000000e+03
-2.189000000000000000e+03
-2.242000000000000000e+03
-2.329000000000000000e+03
-2.430000000000000000e+03
-2.454000000000000000e+03
-2.447000000000000000e+03
-2.490000000000000000e+03
-2.493000000000000000e+03
-2.420000000000000000e+03
-2.353000000000000000e+03
-2.326000000000000000e+03
-2.341000000000000000e+03
-2.348000000000000000e+03
-2.302000000000000000e+03
-2.252000000000000000e+03
-2.211000000000000000e+03
-2.165000000000000000e+03
-2.139000000000000000e+03
-2.107000000000000000e+03
-2.049000000000000000e+03
-1.970000000000000000e+03
-1.902000000000000000e+03
-1.859000000000000000e+03
-1.830000000000000000e+03
-1.821000000000000000e+03
-1.821000000000000000e+03
-1.850000000000000000e+03
-1.895000000000000000e+03
-1.905000000000000000e+03
-1.907000000000000000e+03
-1.924000000000000000e+03
-1.864000000000000000e+03
-1.577000000000000000e+03
-9.440000000000000000e+02
-3.440000000000000000e+02
-6.310000000000000000e+02
-1.809000000000000000e+03
-2.526000000000000000e+03
-2.187000000000000000e+03
-1.924000000000000000e+03
-2.105000000000000000e+03
-2.112000000000000000e+03
-2.023000000000000000e+03
-2.054000000000000000e+03
-2.071000000000000000e+03
-2.059000000000000000e+03
-2.095000000000000000e+03
-2.175000000000000000e+03
-2.211000000000000000e+03
-2.160000000000000000e+03
-2.107000000000000000e+03
-2.045000000000000000e+03
-1.943000000000000000e+03
-1.852000000000000000e+03
-1.751000000000000000e+03
-1.609000000000000000e+03
-1.459000000000000000e+03
-1.365000000000000000e+03
-1.332000000000000000e+03
-1.315000000000000000e+03
-1.310000000000000000e+03
-1.334000000000000000e+03
-1.370000000000000000e+03
-1.406000000000000000e+03
-1.442000000000000000e+03
-1.510000000000000000e+03
-1.585000000000000000e+03
-1.604000000000000000e+03
-1.601000000000000000e+03
-1.616000000000000000e+03
-1.616000000000000000e+03
-1.594000000000000000e+03
-1.556000000000000000e+03
-1.515000000000000000e+03
-1.474000000000000000e+03
-1.404000000000000000e+03
-1.320000000000000000e+03
-1.247000000000000000e+03
-1.206000000000000000e+03
-1.158000000000000000e+03
-1.074000000000000000e+03
-9.920000000000000000e+02
-8.810000000000000000e+02
-7.680000000000000000e+02
-6.840000000000000000e+02
-5.990000000000000000e+02
-5.460000000000000000e+02
-5.340000000000000000e+02
-5.440000000000000000e+02
-5.820000000000000000e+02
-5.940000000000000000e+02
-5.680000000000000000e+02
-5.510000000000000000e+02
-6.020000000000000000e+02
-6.640000000000000000e+02
-6.690000000000000000e+02
-6.980000000000000000e+02
-7.610000000000000000e+02
-7.820000000000000000e+02
-7.920000000000000000e+02
-8.230000000000000000e+02
-8.860000000000000000e+02
-9.730000000000000000e+02
-1.038000000000000000e+03
-1.081000000000000000e+03
-1.124000000000000000e+03
-1.146000000000000000e+03
-1.141000000000000000e+03
-1.059000000000000000e+03
-6.930000000000000000e+02
-1.600000000000000000e+01
2.620000000000000000e+02
-6.210000000000000000e+02
-1.794000000000000000e+03
-1.818000000000000000e+03
-1.271000000000000000e+03
-1.259000000000000000e+03
-1.361000000000000000e+03
-1.199000000000000000e+03
-1.127000000000000000e+03
-1.177000000000000000e+03
-1.151000000000000000e+03
-1.103000000000000000e+03
-1.096000000000000000e+03
-1.069000000000000000e+03
-1.038000000000000000e+03
-1.006000000000000000e+03
-9.630000000000000000e+02
-9.320000000000000000e+02
-9.100000000000000000e+02
-8.930000000000000000e+02
-8.720000000000000000e+02
-8.400000000000000000e+02
-8.090000000000000000e+02
-7.660000000000000000e+02
-7.460000000000000000e+02
-7.490000000000000000e+02
-7.270000000000000000e+02
-7.370000000000000000e+02
-7.800000000000000000e+02
-8.230000000000000000e+02
-8.740000000000000000e+02
-9.200000000000000000e+02
-9.750000000000000000e+02
-1.030000000000000000e+03
-1.038000000000000000e+03
-1.038000000000000000e+03
-1.062000000000000000e+03
-1.081000000000000000e+03
-1.071000000000000000e+03
-1.050000000000000000e+03
-1.057000000000000000e+03
-1.069000000000000000e+03
-1.045000000000000000e+03
-1.018000000000000000e+03
-1.014000000000000000e+03
-1.009000000000000000e+03
-9.770000000000000000e+02
-9.490000000000000000e+02
-9.390000000000000000e+02
-8.840000000000000000e+02
-8.110000000000000000e+02
-7.490000000000000000e+02
-6.330000000000000000e+02
-4.570000000000000000e+02
-2.670000000000000000e+02
-1.630000000000000000e+02
-1.200000000000000000e+02
2.000000000000000000e+00
1.270000000000000000e+02
2.110000000000000000e+02
3.460000000000000000e+02
4.840000000000000000e+02
5.940000000000000000e+02
7.530000000000000000e+02
9.250000000000000000e+02
1.026000000000000000e+03
1.055000000000000000e+03
1.057000000000000000e+03
1.023000000000000000e+03
9.510000000000000000e+02
8.740000000000000000e+02
7.630000000000000000e+02
6.400000000000000000e+02
6.670000000000000000e+02
1.045000000000000000e+03
1.724000000000000000e+03
1.883000000000000000e+03
8.230000000000000000e+02
-3.990000000000000000e+02
-4.360000000000000000e+02
-1.200000000000000000e+01
-9.600000000000000000e+01
-2.020000000000000000e+02
-5.200000000000000000e+01
1.400000000000000000e+01
1.200000000000000000e+01
2.800000000000000000e+01
-4.500000000000000000e+01
-1.490000000000000000e+02
-1.710000000000000000e+02
-1.660000000000000000e+02
-1.800000000000000000e+02
-1.680000000000000000e+02
-1.200000000000000000e+02
-7.200000000000000000e+01
-5.000000000000000000e+01
-2.400000000000000000e+01
1.400000000000000000e+01
5.500000000000000000e+01
9.600000000000000000e+01
1.250000000000000000e+02
1.340000000000000000e+02
1.080000000000000000e+02
6.200000000000000000e+01
3.300000000000000000e+01
-1.600000000000000000e+01
-1.130000000000000000e+02
-2.360000000000000000e+02
-3.680000000000000000e+02
-4.840000000000000000e+02
-5.940000000000000000e+02
-7.000000000000000000e+02
-7.700000000000000000e+02
-8.310000000000000000e+02
-8.880000000000000000e+02
-9.270000000000000000e+02
-9.680000000000000000e+02
-1.014000000000000000e+03
-1.057000000000000000e+03
-1.103000000000000000e+03
-1.134000000000000000e+03
-1.158000000000000000e+03
-1.202000000000000000e+03
-1.223000000000000000e+03
-1.223000000000000000e+03
-1.250000000000000000e+03
-1.312000000000000000e+03
-1.344000000000000000e+03
-1.334000000000000000e+03
-1.341000000000000000e+03
-1.361000000000000000e+03
-1.363000000000000000e+03
-1.358000000000000000e+03
-1.365000000000000000e+03
-1.387000000000000000e+03
-1.351000000000000000e+03
-1.293000000000000000e+03
-1.300000000000000000e+03
-1.305000000000000000e+03
-1.274000000000000000e+03
-1.262000000000000000e+03
-1.274000000000000000e+03
-1.262000000000000000e+03
-1.226000000000000000e+03
-1.211000000000000000e+03
-1.206000000000000000e+03
-1.197000000000000000e+03
-1.182000000000000000e+03
-1.161000000000000000e+03
-1.153000000000000000e+03
-1.163000000000000000e+03
-1.129000000000000000e+03
-8.620000000000000000e+02
-1.370000000000000000e+02
5.780000000000000000e+02
2.480000000000000000e+02
-1.098000000000000000e+03
-1.825000000000000000e+03
-1.353000000000000000e+03
-1.035000000000000000e+03
-1.192000000000000000e+03
-1.105000000000000000e+03
-9.510000000000000000e+02
-9.730000000000000000e+02
-9.490000000000000000e+02
-8.790000000000000000e+02
-8.330000000000000000e+02
-7.850000000000000000e+02
-7.410000000000000000e+02
-7.050000000000000000e+02
-6.670000000000000000e+02
-6.230000000000000000e+02
-5.700000000000000000e+02
-5.200000000000000000e+02
-4.690000000000000000e+02
-4.330000000000000000e+02
-4.070000000000000000e+02
-3.510000000000000000e+02
-2.980000000000000000e+02
-2.810000000000000000e+02
-3.010000000000000000e+02
-3.610000000000000000e+02
-4.450000000000000000e+02
-5.560000000000000000e+02
-6.600000000000000000e+02
-7.580000000000000000e+02
-8.740000000000000000e+02
-9.630000000000000000e+02
-1.062000000000000000e+03
-1.161000000000000000e+03
-1.139000000000000000e+03
-1.038000000000000000e+03
-9.820000000000000000e+02
-9.320000000000000000e+02
-8.230000000000000000e+02
-6.960000000000000000e+02
-6.380000000000000000e+02
-6.070000000000000000e+02
-5.510000000000000000e+02
-5.490000000000000000e+02
-5.610000000000000000e+02
-4.960000000000000000e+02
-3.900000000000000000e+02
-1.610000000000000000e+02
3.010000000000000000e+02
9.970000000000000000e+02
1.992000000000000000e+03
3.153000000000000000e+03
4.215000000000000000e+03
5.130000000000000000e+03
5.993000000000000000e+03
6.829000000000000000e+03
7.746000000000000000e+03
8.854000000000000000e+03
9.698000000000000000e+03
9.987000000000000000e+03
1.001600000000000000e+04
9.837000000000000000e+03
9.430000000000000000e+03
8.898000000000000000e+03
8.308000000000000000e+03
7.701000000000000000e+03
7.004000000000000000e+03
6.253000000000000000e+03
5.460000000000000000e+03
4.603000000000000000e+03
3.815000000000000000e+03
3.131000000000000000e+03
2.517000000000000000e+03
2.004000000000000000e+03
1.597000000000000000e+03
1.279000000000000000e+03
1.083000000000000000e+03
1.146000000000000000e+03
1.563000000000000000e+03
1.890000000000000000e+03
1.329000000000000000e+03
4.500000000000000000e+01
-5.540000000000000000e+02
-1.390000000000000000e+02
5.000000000000000000e+01
-1.460000000000000000e+02
-1.050000000000000000e+02
-4.800000000000000000e+01
-1.560000000000000000e+02
-2.040000000000000000e+02
-1.970000000000000000e+02
-2.450000000000000000e+02
-2.790000000000000000e+02
-2.600000000000000000e+02
-2.520000000000000000e+02
-2.720000000000000000e+02
-2.570000000000000000e+02
-2.400000000000000000e+02
-2.450000000000000000e+02
-2.360000000000000000e+02
-1.970000000000000000e+02
-1.440000000000000000e+02
-1.180000000000000000e+02
-1.200000000000000000e+02
-1.130000000000000000e+02
-1.250000000000000000e+02
-1.780000000000000000e+02
-2.430000000000000000e+02
-3.200000000000000000e+02
-4.110000000000000000e+02
-5.030000000000000000e+02
-5.850000000000000000e+02
-6.550000000000000000e+02
-7.340000000000000000e+02
-7.970000000000000000e+02
-8.380000000000000000e+02
-8.760000000000000000e+02
-9.030000000000000000e+02
-9.440000000000000000e+02
-9.680000000000000000e+02
-9.440000000000000000e+02
-9.460000000000000000e+02
-9.770000000000000000e+02
-9.900000000000000000e+02
-9.820000000000000000e+02
-9.650000000000000000e+02
-9.770000000000000000e+02
-9.850000000000000000e+02
-9.510000000000000000e+02
-9.390000000000000000e+02
-9.530000000000000000e+02
-9.370000000000000000e+02
-9.030000000000000000e+02
-9.200000000000000000e+02
-9.530000000000000000e+02
-9.530000000000000000e+02
-9.510000000000000000e+02
-9.630000000000000000e+02
-9.680000000000000000e+02
-9.850000000000000000e+02
-9.800000000000000000e+02
-9.100000000000000000e+02
-7.900000000000000000e+02
-6.570000000000000000e+02
-5.820000000000000000e+02
-5.700000000000000000e+02
-5.460000000000000000e+02
-5.250000000000000000e+02
-5.270000000000000000e+02
-5.340000000000000000e+02
-5.290000000000000000e+02
-5.200000000000000000e+02
-5.220000000000000000e+02
-5.100000000000000000e+02
-4.840000000000000000e+02
-4.720000000000000000e+02
-4.480000000000000000e+02
-3.870000000000000000e+02
-2.740000000000000000e+02
4.800000000000000000e+01
8.160000000000000000e+02
1.770000000000000000e+03
1.984000000000000000e+03
1.067000000000000000e+03
3.540000000000000000e+02
9.100000000000000000e+02
1.308000000000000000e+03
7.560000000000000000e+02
5.130000000000000000e+02
3.830000000000000000e+02
-6.640000000000000000e+02
-1.936000000000000000e+03
-3.025000000000000000e+03
-4.314000000000000000e+03
-4.938000000000000000e+03
-4.314000000000000000e+03
-3.220000000000000000e+03
-2.254000000000000000e+03
-1.341000000000000000e+03
-4.430000000000000000e+02
2.840000000000000000e+02
8.620000000000000000e+02
1.310000000000000000e+03
1.505000000000000000e+03
1.503000000000000000e+03
1.433000000000000000e+03
1.300000000000000000e+03
1.124000000000000000e+03
9.410000000000000000e+02
7.630000000000000000e+02
6.190000000000000000e+02
4.840000000000000000e+02
3.370000000000000000e+02
2.020000000000000000e+02
6.900000000000000000e+01
-2.400000000000000000e+01
-6.500000000000000000e+01
-1.200000000000000000e+02
-1.780000000000000000e+02
-2.070000000000000000e+02
-2.570000000000000000e+02
-3.320000000000000000e+02
-3.630000000000000000e+02
-3.730000000000000000e+02
-4.040000000000000000e+02
-4.070000000000000000e+02
-3.900000000000000000e+02
-3.990000000000000000e+02
-3.950000000000000000e+02
-3.750000000000000000e+02
-3.660000000000000000e+02
-3.750000000000000000e+02
-3.950000000000000000e+02
-4.020000000000000000e+02
-4.070000000000000000e+02
-4.190000000000000000e+02
-4.280000000000000000e+02
-4.400000000000000000e+02
-4.620000000000000000e+02
-4.960000000000000000e+02
-5.130000000000000000e+02
-4.880000000000000000e+02
-4.550000000000000000e+02
-4.500000000000000000e+02
-4.760000000000000000e+02
-5.010000000000000000e+02
-4.860000000000000000e+02
-4.930000000000000000e+02
-5.320000000000000000e+02
-5.320000000000000000e+02
-5.290000000000000000e+02
-5.490000000000000000e+02
-5.660000000000000000e+02
-5.800000000000000000e+02
-5.750000000000000000e+02
-5.780000000000000000e+02
-5.990000000000000000e+02
-6.160000000000000000e+02
-6.070000000000000000e+02
-4.160000000000000000e+02
1.440000000000000000e+02
8.260000000000000000e+02
7.410000000000000000e+02
-5.010000000000000000e+02
-1.466000000000000000e+03
-1.093000000000000000e+03
-6.520000000000000000e+02
-8.190000000000000000e+02
-8.090000000000000000e+02
-6.140000000000000000e+02
-6.330000000000000000e+02
-6.880000000000000000e+02
-6.380000000000000000e+02
-6.070000000000000000e+02
-6.040000000000000000e+02
-5.660000000000000000e+02
-5.220000000000000000e+02
-4.740000000000000000e+02
-4.280000000000000000e+02
-4.020000000000000000e+02
-3.610000000000000000e+02
-3.100000000000000000e+02
-2.690000000000000000e+02
-2.020000000000000000e+02
-5.700000000000000000e+01
1.850000000000000000e+02
4.840000000000000000e+02
9.150000000000000000e+02
1.744000000000000000e+03
3.432000000000000000e+03
6.243000000000000000e+03
8.946000000000000000e+03
1.038200000000000000e+04
1.187300000000000000e+04
1.441200000000000000e+04
1.662500000000000000e+04
1.744700000000000000e+04
1.756700000000000000e+04
1.776000000000000000e+04
1.779100000000000000e+04
1.757700000000000000e+04
1.746100000000000000e+04
1.731000000000000000e+04
1.655300000000000000e+04
1.493900000000000000e+04
1.315200000000000000e+04
1.192300000000000000e+04
1.079100000000000000e+04
9.283000000000000000e+03
7.850000000000000000e+03
6.715000000000000000e+03
5.566000000000000000e+03
4.405000000000000000e+03
3.500000000000000000e+03
2.762000000000000000e+03
1.878000000000000000e+03
8.060000000000000000e+02
-2.620000000000000000e+02
-1.269000000000000000e+03
-2.155000000000000000e+03
-2.823000000000000000e+03
-3.247000000000000000e+03
-3.485000000000000000e+03
-3.618000000000000000e+03
-3.668000000000000000e+03
-3.707000000000000000e+03
-3.762000000000000000e+03
-3.731000000000000000e+03
-3.649000000000000000e+03
-3.618000000000000000e+03
-3.567000000000000000e+03
-3.456000000000000000e+03
-3.355000000000000000e+03
-3.290000000000000000e+03
-3.196000000000000000e+03
-3.073000000000000000e+03
-2.974000000000000000e+03
-2.849000000000000000e+03
-2.630000000000000000e+03
-2.158000000000000000e+03
-1.406000000000000000e+03
-9.990000000000000000e+02
-1.601000000000000000e+03
-2.497000000000000000e+03
-2.399000000000000000e+03
-1.770000000000000000e+03
-1.666000000000000000e+03
-1.618000000000000000e+03
-1.226000000000000000e+03
-9.820000000000000000e+02
-9.580000000000000000e+02
-9.200000000000000000e+02
-9.100000000000000000e+02
-9.370000000000000000e+02
-8.930000000000000000e+02
-7.750000000000000000e+02
-6.760000000000000000e+02
-6.090000000000000000e+02
-4.690000000000000000e+02
-3.560000000000000000e+02
-3.800000000000000000e+02
-4.400000000000000000e+02
-4.760000000000000000e+02
-5.370000000000000000e+02
-6.600000000000000000e+02
-7.970000000000000000e+02
-8.880000000000000000e+02
-9.920000000000000000e+02
-1.086000000000000000e+03
-1.161000000000000000e+03
-1.288000000000000000e+03
-1.409000000000000000e+03
-1.495000000000000000e+03
-1.572000000000000000e+03
-1.647000000000000000e+03
-1.729000000000000000e+03
-1.784000000000000000e+03
-1.797000000000000000e+03
-1.729000000000000000e+03
-1.570000000000000000e+03
-1.370000000000000000e+03
-1.136000000000000000e+03
-8.260000000000000000e+02
-4.040000000000000000e+02
1.560000000000000000e+02
8.020000000000000000e+02
1.459000000000000000e+03
2.001000000000000000e+03
2.305000000000000000e+03
2.490000000000000000e+03
2.722000000000000000e+03
3.194000000000000000e+03
4.010000000000000000e+03
5.022000000000000000e+03
6.226000000000000000e+03
7.619000000000000000e+03
9.452000000000000000e+03
1.213800000000000000e+04
1.487400000000000000e+04
1.674300000000000000e+04
1.833300000000000000e+04
1.973000000000000000e+04
1.973000000000000000e+04
1.973000000000000000e+04
1.823000000000000000e+04
1.686900000000000000e+04
1.619200000000000000e+04
1.494400000000000000e+04
1.375400000000000000e+04
1.356600000000000000e+04
1.433900000000000000e+04
1.479000000000000000e+04
1.358300000000000000e+04
1.087300000000000000e+04
7.595000000000000000e+03
3.931000000000000000e+03
-6.140000000000000000e+02
-3.550000000000000000e+03
-2.765000000000000000e+03
-1.358000000000000000e+03
-6.500000000000000000e+02
2.240000000000000000e+02
3.510000000000000000e+02
2.890000000000000000e+02
7.340000000000000000e+02
3.440000000000000000e+02
-6.760000000000000000e+02
-1.385000000000000000e+03
-2.432000000000000000e+03
-3.752000000000000000e+03
-4.759000000000000000e+03
-5.745000000000000000e+03
-6.805000000000000000e+03
-7.426000000000000000e+03
-7.551000000000000000e+03
-7.744000000000000000e+03
-8.105000000000000000e+03
-8.459000000000000000e+03
-8.850000000000000000e+03
-9.136000000000000000e+03
-9.221000000000000000e+03
-9.334000000000000000e+03
-9.488000000000000000e+03
-9.401000000000000000e+03
-9.062000000000000000e+03
-8.763000000000000000e+03
-8.621000000000000000e+03
-8.512000000000000000e+03
-8.373000000000000000e+03
-8.255000000000000000e+03
-8.204000000000000000e+03
-8.175000000000000000e+03
-8.098000000000000000e+03
-8.023000000000000000e+03
-7.990000000000000000e+03
-7.910000000000000000e+03
-7.799000000000000000e+03
-7.766000000000000000e+03
-7.677000000000000000e+03
-7.462000000000000000e+03
-7.303000000000000000e+03
-7.207000000000000000e+03
-7.067000000000000000e+03
-6.959000000000000000e+03
-6.841000000000000000e+03
-6.631000000000000000e+03
-6.487000000000000000e+03
-6.400000000000000000e+03
-6.284000000000000000e+03
-6.202000000000000000e+03
-6.101000000000000000e+03
-5.949000000000000000e+03
-5.834000000000000000e+03
-5.766000000000000000e+03
-5.701000000000000000e+03
-5.602000000000000000e+03
-5.480000000000000000e+03
-5.381000000000000000e+03
-5.306000000000000000e+03
-5.212000000000000000e+03
-5.104000000000000000e+03
-5.046000000000000000e+03
-5.022000000000000000e+03
-4.962000000000000000e+03
-4.909000000000000000e+03
-4.892000000000000000e+03
-4.861000000000000000e+03
-4.822000000000000000e+03
-4.810000000000000000e+03
-4.849000000000000000e+03
-4.894000000000000000e+03
-4.851000000000000000e+03
-4.730000000000000000e+03
-4.644000000000000000e+03
-4.531000000000000000e+03
-4.119000000000000000e+03
-3.336000000000000000e+03
-2.762000000000000000e+03
-3.182000000000000000e+03
-4.249000000000000000e+03
-4.557000000000000000e+03
-4.013000000000000000e+03
-3.832000000000000000e+03
-3.957000000000000000e+03
-3.752000000000000000e+03
-3.524000000000000000e+03
-3.420000000000000000e+03
-3.218000000000000000e+03
-3.003000000000000000e+03
-2.866000000000000000e+03
-2.726000000000000000e+03
-2.589000000000000000e+03
-2.548000000000000000e+03
-2.630000000000000000e+03
-2.767000000000000000e+03
-2.873000000000000000e+03
-2.878000000000000000e+03
-2.801000000000000000e+03
-2.717000000000000000e+03
-2.582000000000000000e+03
-2.384000000000000000e+03
-2.254000000000000000e+03
-2.266000000000000000e+03
-2.343000000000000000e+03
-2.430000000000000000e+03
-2.589000000000000000e+03
-2.782000000000000000e+03
-2.868000000000000000e+03
-2.794000000000000000e+03
-2.637000000000000000e+03
-2.495000000000000000e+03
-2.363000000000000000e+03
-2.237000000000000000e+03
-2.090000000000000000e+03
-1.816000000000000000e+03
-1.324000000000000000e+03
-5.250000000000000000e+02
4.960000000000000000e+02
1.385000000000000000e+03
1.948000000000000000e+03
2.420000000000000000e+03
2.762000000000000000e+03
2.666000000000000000e+03
2.517000000000000000e+03
2.820000000000000000e+03
3.382000000000000000e+03
4.020000000000000000e+03
4.641000000000000000e+03
4.641000000000000000e+03
3.931000000000000000e+03
3.198000000000000000e+03
2.488000000000000000e+03
1.532000000000000000e+03
7.250000000000000000e+02
3.130000000000000000e+02
-3.100000000000000000e+01
-3.680000000000000000e+02
-5.390000000000000000e+02
-6.330000000000000000e+02
-7.370000000000000000e+02
-7.730000000000000000e+02
-7.630000000000000000e+02
-7.780000000000000000e+02
-8.110000000000000000e+02
-8.160000000000000000e+02
-7.560000000000000000e+02
-6.720000000000000000e+02
-6.070000000000000000e+02
-5.460000000000000000e+02
-4.520000000000000000e+02
-2.790000000000000000e+02
8.900000000000000000e+01
5.440000000000000000e+02
3.610000000000000000e+02
-7.320000000000000000e+02
-1.411000000000000000e+03
-1.006000000000000000e+03
-7.390000000000000000e+02
-9.340000000000000000e+02
-8.980000000000000000e+02
-7.850000000000000000e+02
-8.500000000000000000e+02
-8.880000000000000000e+02
-8.910000000000000000e+02
-9.320000000000000000e+02
-9.530000000000000000e+02
-9.610000000000000000e+02
-1.014000000000000000e+03
-1.074000000000000000e+03
-1.074000000000000000e+03
-1.059000000000000000e+03
-1.088000000000000000e+03
-1.100000000000000000e+03
-1.059000000000000000e+03
-1.016000000000000000e+03
-9.850000000000000000e+02
-9.440000000000000000e+02
-9.220000000000000000e+02
-9.510000000000000000e+02
-9.850000000000000000e+02
-1.004000000000000000e+03
-1.069000000000000000e+03
-1.194000000000000000e+03
-1.310000000000000000e+03
-1.399000000000000000e+03
-1.471000000000000000e+03
-1.515000000000000000e+03
-1.529000000000000000e+03
-1.548000000000000000e+03
-1.599000000000000000e+03
-1.647000000000000000e+03
-1.664000000000000000e+03
-1.650000000000000000e+03
-1.616000000000000000e+03
-1.611000000000000000e+03
-1.592000000000000000e+03
-1.529000000000000000e+03
-1.481000000000000000e+03
-1.445000000000000000e+03
-1.404000000000000000e+03
-1.344000000000000000e+03
-1.264000000000000000e+03
-1.204000000000000000e+03
-1.141000000000000000e+03
-1.033000000000000000e+03
-8.910000000000000000e+02
-7.510000000000000000e+02
-6.160000000000000000e+02
-4.160000000000000000e+02
-1.130000000000000000e+02
2.890000000000000000e+02
7.850000000000000000e+02
1.276000000000000000e+03
1.712000000000000000e+03
2.180000000000000000e+03
2.738000000000000000e+03
3.500000000000000000e+03
4.673000000000000000e+03
6.472000000000000000e+03
8.789000000000000000e+03
1.195500000000000000e+04
1.736300000000000000e+04
1.973000000000000000e+04
1.973000000000000000e+04
1.973000000000000000e+04
1.973000000000000000e+04
1.973000000000000000e+04
1.973000000000000000e+04
1.973000000000000000e+04
1.973000000000000000e+04
1.973000000000000000e+04
1.973000000000000000e+04
1.973000000000000000e+04
1.782500000000000000e+04
1.593200000000000000e+04
1.692900000000000000e+04
1.822500000000000000e+04
1.803200000000000000e+04
1.626600000000000000e+04
1.423800000000000000e+04
1.333500000000000000e+04
1.177200000000000000e+04
9.228000000000000000e+03
7.792000000000000000e+03
6.703000000000000000e+03
4.254000000000000000e+03
1.110000000000000000e+03
-1.474000000000000000e+03
-3.338000000000000000e+03
-4.755000000000000000e+03
-5.863000000000000000e+03
-6.699000000000000000e+03
-7.212000000000000000e+03
-7.498000000000000000e+03
-7.677000000000000000e+03
-7.739000000000000000e+03
-7.778000000000000000e+03
-7.770000000000000000e+03
-7.624000000000000000e+03
-7.515000000000000000e+03
-7.522000000000000000e+03
-7.484000000000000000e+03
-7.412000000000000000e+03
-7.397000000000000000e+03
-7.387000000000000000e+03
-7.310000000000000000e+03
-7.204000000000000000e+03
-7.166000000000000000e+03
-7.127000000000000000e+03
-6.954000000000000000e+03
-6.756000000000000000e+03
-6.641000000000000000e+03
-6.523000000000000000e+03
-6.330000000000000000e+03
-6.118000000000000000e+03
-5.899000000000000000e+03
-5.569000000000000000e+03
-5.077000000000000000e+03
-4.400000000000000000e+03
-3.475000000000000000e+03
-2.348000000000000000e+03
-1.177000000000000000e+03
-6.200000000000000000e+01
9.510000000000000000e+02
1.710000000000000000e+03
2.199000000000000000e+03
2.452000000000000000e+03
2.399000000000000000e+03
2.254000000000000000e+03
2.006000000000000000e+03
1.177000000000000000e+03
8.400000000000000000e+01
-4.310000000000000000e+02
-5.030000000000000000e+02
-5.730000000000000000e+02
-4.570000000000000000e+02
-1.580000000000000000e+02
-8.400000000000000000e+01
-4.670000000000000000e+02
-1.071000000000000000e+03
-1.481000000000000000e+03
-1.712000000000000000e+03
-1.994000000000000000e+03
-2.225000000000000000e+03
-2.276000000000000000e+03
-2.134000000000000000e+03
-1.859000000000000000e+03
-1.392000000000000000e+03
-5.100000000000000000e+02
1.420000000000000000e+02
-1.300000000000000000e+02
-4.330000000000000000e+02
-7.200000000000000000e+01
1.300000000000000000e+02
-1.830000000000000000e+02
2.400000000000000000e+02
2.105000000000000000e+03
4.179000000000000000e+03
4.817000000000000000e+03
3.567000000000000000e+03
1.833000000000000000e+03
7.170000000000000000e+02
-1.100000000000000000e+02
-4.430000000000000000e+02
-2.400000000000000000e+01
5.490000000000000000e+02
1.028000000000000000e+03
1.688000000000000000e+03
2.507000000000000000e+03
2.866000000000000000e+03
2.579000000000000000e+03
3.343000000000000000e+03
6.140000000000000000e+03
8.621000000000000000e+03
9.103000000000000000e+03
9.454000000000000000e+03
1.075000000000000000e+04
1.125800000000000000e+04
1.043000000000000000e+04
9.365000000000000000e+03
8.226000000000000000e+03
6.530000000000000000e+03
3.851000000000000000e+03
8.910000000000000000e+02
-1.286000000000000000e+03
-2.924000000000000000e+03
-4.145000000000000000e+03
-4.791000000000000000e+03
-5.193000000000000000e+03
-5.417000000000000000e+03
-5.364000000000000000e+03
-5.277000000000000000e+03
-5.272000000000000000e+03
-5.316000000000000000e+03
-5.427000000000000000e+03
-5.533000000000000000e+03
-5.533000000000000000e+03
-5.525000000000000000e+03
-5.566000000000000000e+03
-5.535000000000000000e+03
-5.441000000000000000e+03
-5.403000000000000000e+03
